 # temperature (K), theta (degree), phi (degree), abs for magnetization
     0.00000     0.00000     0.00000     1.79833
     2.00000     0.00000     0.00000     1.79820
     4.00000     0.00000     0.00000     1.79796
     6.00000     0.00000     0.00000     1.79766
     8.00000     0.00000     0.00000     1.79730
    10.00000     0.00000     0.00000     1.79689
    12.00000     0.00000     0.00000     1.79643
    14.00000     0.00000     0.00000     1.79594
    16.00000     0.00000     0.00000     1.79541
    18.00000     0.00000     0.00000     1.79485
