 # applied field (T), theta (degree), phi (degree), abs for RE 1-2
     0.00000   179.00479   315.00000     0.10072   179.00479   225.00000     0.10072
     0.10000   178.62277   222.28399     0.10078   177.51295   191.47406     0.10081
     0.20000   177.03072   202.82104     0.10088   175.82539   183.95304     0.10094
     0.30000   175.34339   197.22193     0.10104   174.11615   180.80603     0.10112
     0.40000   173.64368   194.65020     0.10123   172.40814   179.09078     0.10135
     0.50000   171.94709   193.19550     0.10148   170.70885   178.01351     0.10162
     0.60000   170.25964   192.27295     0.10176   169.02211   177.27374     0.10194
     0.70000   168.50337   191.61580     0.10211   167.26914   176.71337     0.10232
     0.80000   166.84417   191.17562     0.10248   165.61523   176.30425     0.10272
     0.90000   165.12215   190.83486     0.10290   163.90030   175.96716     0.10318
     1.00000   163.42038   190.58193     0.10336   162.20694   175.69368     0.10368
     1.10000   161.74025   190.39162     0.10386   160.53617   175.46587     0.10421
     1.20000   160.00623   190.23952     0.10441   158.81252   175.26516     0.10479
     1.30000   158.29804   190.12576     0.10499   157.11499   175.09190     0.10541
     1.40000   156.61634   190.04146     0.10560   155.44394   174.93960     0.10605
     1.50000   154.88855   189.97622     0.10626   153.72686   174.79917     0.10674
     1.60000   153.11861   189.92791     0.10697   151.96741   174.66847     0.10748
     1.70000   151.38072   189.89705     0.10770   150.23917   174.54927     0.10822
     1.80000   149.67451   189.88015     0.10844   148.54170   174.43909     0.10897
     1.90000   147.86392   189.87185     0.10925   146.73956   174.32977     0.10978
     2.00000   146.08873   189.87425     0.11007   144.97210   174.22666     0.11058
     2.10000   144.28264   189.88463     0.11092   143.17375   174.12540     0.11139
     2.20000   142.44798   189.90203     0.11179   141.34763   174.02495     0.11220
     2.30000   140.52427   189.92552     0.11272   139.43487   173.92155     0.11303
     2.40000   138.63898   189.95426     0.11363   137.56407   173.81956     0.11382
     2.50000   136.60958   189.98769     0.11461   135.55689   173.70956     0.11462
     2.60000   134.50223   190.02490     0.11561   133.48336   173.59276     0.11540
     2.70000   132.37719   190.06417     0.11660   131.40787   173.47034     0.11611
     2.80000   130.06375   190.10554     0.11764   129.17131   173.33150     0.11681
     2.90000   127.56883   190.14714     0.11872   126.79283   173.17318     0.11747
     3.00000   124.89715   190.18624     0.11981   124.29167   172.99206     0.11807
     3.10000   121.94409   190.21970     0.12094   121.58816   172.77770     0.11865
     3.20000   118.55623   190.24170     0.12211   118.56630   172.51532     0.11924
     3.30000   114.53327   190.24057     0.12334   115.07542   172.18606     0.11994
     3.40000   109.32300   190.18814     0.12471   110.63300   171.75500     0.12101
     3.50000   101.45087   189.98892     0.12635   103.82927   171.18586     0.12327
     3.60000    88.45136   189.33878     0.12814    91.54864   170.66122     0.12814
     3.70000    88.45011   189.34629     0.12801    91.54989   170.65371     0.12801
     3.80000    88.44885   189.35382     0.12789    91.55115   170.64618     0.12789
     3.90000    88.44759   189.36136     0.12776    91.55241   170.63864     0.12776
     4.00000    88.44633   189.36891     0.12764    91.55367   170.63109     0.12764
     4.10000    88.44507   189.37647     0.12752    91.55493   170.62353     0.12752
     4.20000    88.44380   189.38405     0.12739    91.55620   170.61595     0.12739
     4.30000    88.44254   189.39165     0.12727    91.55746   170.60835     0.12727
     4.40000    88.44127   189.39925     0.12715    91.55873   170.60075     0.12715
     4.50000    88.44000   189.40688     0.12702    91.56000   170.59312     0.12702
     4.60000    88.43872   189.41451     0.12690    91.56128   170.58549     0.12690
     4.70000    88.43744   189.42216     0.12677    91.56256   170.57784     0.12677
     4.80000    88.43617   189.42982     0.12665    91.56383   170.57018     0.12665
     4.90000    88.43488   189.43750     0.12653    91.56512   170.56250     0.12653
     5.00000    88.43360   189.44519     0.12640    91.56640   170.55481     0.12640
     5.10000    88.43232   189.45290     0.12628    91.56768   170.54710     0.12628
     5.20000    88.43103   189.46062     0.12615    91.56897   170.53938     0.12615
     5.30000    88.42974   189.46835     0.12603    91.57026   170.53165     0.12603
     5.40000    88.42844   189.47610     0.12591    91.57156   170.52390     0.12591
     5.50000    88.42715   189.48386     0.12578    91.57285   170.51614     0.12578
     5.60000    88.42585   189.49164     0.12566    91.57415   170.50836     0.12566
     5.70000    88.42455   189.49943     0.12554    91.57545   170.50057     0.12554
     5.80000    88.42325   189.50724     0.12541    91.57675   170.49276     0.12541
     5.90000    88.42194   189.51506     0.12529    91.57806   170.48494     0.12529
     6.00000    88.42064   189.52289     0.12517    91.57936   170.47711     0.12517
     6.10000    88.41933   189.53074     0.12504    91.58067   170.46926     0.12504
     6.20000    88.41802   189.53860     0.12492    91.58198   170.46140     0.12492
     6.30000    88.41670   189.54648     0.12479    91.58330   170.45352     0.12479
     6.40000    88.41539   189.55438     0.12467    91.58461   170.44562     0.12467
     6.50000    88.41407   189.56228     0.12455    91.58593   170.43772     0.12455
     6.60000    88.41275   189.57021     0.12442    91.58725   170.42979     0.12442
     6.70000    88.41142   189.57814     0.12430    91.58858   170.42186     0.12430
     6.80000    88.41010   189.58610     0.12418    91.58990   170.41390     0.12418
     6.90000    88.40877   189.59406     0.12405    91.59123   170.40594     0.12405
     7.00000    88.40744   189.60205     0.12393    91.59256   170.39795     0.12393
     7.10000    88.40610   189.61004     0.12381    91.59390   170.38996     0.12381
     7.20000    88.40477   189.61805     0.12368    91.59523   170.38195     0.12368
     7.30000    88.40343   189.62608     0.12356    91.59657   170.37392     0.12356
     7.40000    88.40209   189.63412     0.12344    91.59791   170.36588     0.12344
     7.50000    88.40075   189.64218     0.12331    91.59925   170.35782     0.12331
     7.60000    88.39940   189.65025     0.12319    91.60060   170.34975     0.12319
     7.70000    88.39805   189.65834     0.12307    91.60195   170.34166     0.12307
     7.80000    88.39670   189.66644     0.12294    91.60330   170.33356     0.12294
     7.90000    88.39535   189.67456     0.12282    91.60465   170.32544     0.12282
     8.00000    88.39399   189.68270     0.12269    91.60601   170.31730     0.12269
     8.10000    88.39263   189.69085     0.12257    91.60737   170.30915     0.12257
     8.20000    88.39127   189.69901     0.12245    91.60873   170.30099     0.12245
     8.30000    88.38991   189.70719     0.12232    91.61009   170.29281     0.12232
     8.40000    88.38854   189.71539     0.12220    91.61146   170.28461     0.12220
     8.50000    88.38718   189.72360     0.12208    91.61282   170.27640     0.12208
     8.60000    88.38580   189.73183     0.12195    91.61420   170.26817     0.12195
     8.70000    88.38443   189.74007     0.12183    91.61557   170.25993     0.12183
     8.80000    88.38305   189.74833     0.12171    91.61695   170.25167     0.12171
     8.90000    88.38168   189.75660     0.12159    91.61832   170.24340     0.12159
     9.00000    88.38029   189.76489     0.12146    91.61971   170.23511     0.12146
     9.10000    88.37891   189.77320     0.12134    91.62109   170.22680     0.12134
     9.20000    88.37752   189.78152     0.12122    91.62248   170.21848     0.12122
     9.30000    88.37614   189.78986     0.12109    91.62386   170.21014     0.12109
     9.40000    88.37474   189.79821     0.12097    91.62526   170.20179     0.12097
     9.50000    88.37335   189.80658     0.12085    91.62665   170.19342     0.12085
     9.60000    88.37195   189.81496     0.12072    91.62805   170.18504     0.12072
     9.70000    88.37055   189.82337     0.12060    91.62945   170.17663     0.12060
     9.80000    88.36915   189.83178     0.12048    91.63085   170.16822     0.12048
     9.90000    88.36775   189.84022     0.12035    91.63225   170.15978     0.12035
    10.00000    88.36634   189.84867     0.12023    91.63366   170.15133     0.12023
    10.10000    88.36493   189.85714     0.12011    91.63507   170.14286     0.12011
    10.20000    88.36352   189.86562     0.11998    91.63648   170.13438     0.11998
    10.30000    88.36210   189.87412     0.11986    91.63790   170.12588     0.11986
    10.40000    88.36068   189.88264     0.11974    91.63932   170.11736     0.11974
    10.50000    88.35926   189.89117     0.11961    91.64074   170.10883     0.11961
    10.60000    88.35784   189.89972     0.11949    91.64216   170.10028     0.11949
    10.70000    88.35641   189.90828     0.11937    91.64359   170.09172     0.11937
    10.80000    88.35498   189.91687     0.11925    91.64502   170.08313     0.11925
    10.90000    88.35355   189.92547     0.11912    91.64645   170.07453     0.11912
    11.00000    88.35212   189.93408     0.11900    91.64788   170.06592     0.11900
    11.10000    88.35068   189.94272     0.11888    91.64932   170.05728     0.11888
    11.20000    88.34924   189.95137     0.11875    91.65076   170.04863     0.11875
    11.30000    88.34780   189.96003     0.11863    91.65220   170.03997     0.11863
    11.40000    88.34635   189.96872     0.11851    91.65365   170.03128     0.11851
    11.50000    88.34490   189.97742     0.11838    91.65510   170.02258     0.11838
    11.60000    88.34345   189.98613     0.11826    91.65655   170.01387     0.11826
    11.70000    88.34200   189.99487     0.11814    91.65800   170.00513     0.11814
    11.80000    88.34054   190.00362     0.11802    91.65946   169.99638     0.11802
    11.90000    88.33908   190.01239     0.11789    91.66092   169.98761     0.11789
    12.00000    88.33762   190.02118     0.11777    91.66238   169.97882     0.11777
    12.10000    88.33615   190.02998     0.11765    91.66385   169.97002     0.11765
    12.20000    88.33469   190.03880     0.11752    91.66531   169.96120     0.11752
    12.30000    88.33322   190.04764     0.11740    91.66678   169.95236     0.11740
    12.40000    88.33174   190.05650     0.11728    91.66826   169.94350     0.11728
    12.50000    88.33027   190.06537     0.11716    91.66973   169.93463     0.11716
    12.60000    88.32879   190.07426     0.11703    91.67121   169.92574     0.11703
    12.70000    88.32730   190.08317     0.11691    91.67270   169.91683     0.11691
    12.80000    88.32582   190.09210     0.11679    91.67418   169.90790     0.11679
    12.90000    88.32433   190.10104     0.11667    91.67567   169.89896     0.11667
    13.00000    88.32284   190.11001     0.11654    91.67716   169.88999     0.11654
    13.10000    88.32135   190.11899     0.11642    91.67865   169.88101     0.11642
    13.20000    88.31985   190.12799     0.11630    91.68015   169.87201     0.11630
    13.30000    88.31835   190.13700     0.11617    91.68165   169.86300     0.11617
    13.40000    88.31685   190.14604     0.11605    91.68315   169.85396     0.11605
    13.50000    88.31534   190.15509     0.11593    91.68466   169.84491     0.11593
    13.60000    88.31383   190.16416     0.11581    91.68617   169.83584     0.11581
    13.70000    88.31232   190.17325     0.11568    91.68768   169.82675     0.11568
    13.80000    88.31081   190.18235     0.11556    91.68919   169.81765     0.11556
    13.90000    88.30929   190.19148     0.11544    91.69071   169.80852     0.11544
    14.00000    88.30777   190.20062     0.11532    91.69223   169.79938     0.11532
    14.10000    88.30625   190.20978     0.11519    91.69375   169.79022     0.11519
    14.20000    88.30472   190.21896     0.11507    91.69528   169.78104     0.11507
    14.30000    88.30319   190.22816     0.11495    91.69681   169.77184     0.11495
    14.40000    88.30166   190.23738     0.11483    91.69834   169.76262     0.11483
    14.50000    88.30012   190.24662     0.11470    91.69988   169.75338     0.11470
    14.60000    88.29858   190.25587     0.11458    91.70142   169.74413     0.11458
    14.70000    88.29704   190.26515     0.11446    91.70296   169.73485     0.11446
    14.80000    88.29550   190.27444     0.11434    91.70450   169.72556     0.11434
    14.90000    88.29395   190.28375     0.11421    91.70605   169.71625     0.11421
    15.00000    88.29240   190.29308     0.11409    91.70760   169.70692     0.11409
    15.10000    88.29085   190.30243     0.11397    91.70915   169.69757     0.11397
    15.20000    88.28929   190.31180     0.11385    91.71071   169.68820     0.11385
    15.30000    88.28773   190.32118     0.11372    91.71227   169.67882     0.11372
    15.40000    88.28617   190.33059     0.11360    91.71383   169.66941     0.11360
    15.50000    88.28460   190.34002     0.11348    91.71540   169.65998     0.11348
    15.60000    88.28303   190.34946     0.11336    91.71697   169.65054     0.11336
    15.70000    88.28146   190.35893     0.11323    91.71854   169.64107     0.11323
    15.80000    88.27988   190.36841     0.11311    91.72012   169.63159     0.11311
    15.90000    88.27830   190.37791     0.11299    91.72170   169.62209     0.11299
    16.00000    88.27672   190.38743     0.11287    91.72328   169.61257     0.11287
    16.10000    88.27514   190.39698     0.11274    91.72486   169.60302     0.11274
    16.20000    88.27355   190.40654     0.11262    91.72645   169.59346     0.11262
    16.30000    88.27196   190.41612     0.11250    91.72804   169.58388     0.11250
    16.40000    88.27036   190.42572     0.11238    91.72964   169.57428     0.11238
    16.50000    88.26876   190.43534     0.11226    91.73124   169.56466     0.11226
    16.60000    88.26716   190.44498     0.11213    91.73284   169.55502     0.11213
    16.70000    88.26556   190.45465     0.11201    91.73444   169.54535     0.11201
    16.80000    88.26395   190.46433     0.11189    91.73605   169.53567     0.11189
    16.90000    88.26234   190.47403     0.11177    91.73766   169.52597     0.11177
    17.00000    88.26072   190.48375     0.11164    91.73928   169.51625     0.11164
    17.10000    88.25911   190.49349     0.11152    91.74089   169.50651     0.11152
    17.20000    88.25749   190.50325     0.11140    91.74251   169.49675     0.11140
    17.30000    88.25586   190.51303     0.11128    91.74414   169.48697     0.11128
    17.40000    88.25423   190.52284     0.11116    91.74577   169.47716     0.11116
    17.50000    88.25260   190.53266     0.11103    91.74740   169.46734     0.11103
    17.60000    88.25097   190.54250     0.11091    91.74903   169.45750     0.11091
    17.70000    88.24933   190.55237     0.11079    91.75067   169.44763     0.11079
    17.80000    88.24769   190.56225     0.11067    91.75231   169.43775     0.11067
    17.90000    88.24605   190.57216     0.11055    91.75395   169.42784     0.11055
    18.00000    88.24440   190.58208     0.11042    91.75560   169.41792     0.11042
    18.10000    88.24275   190.59203     0.11030    91.75725   169.40797     0.11030
    18.20000    88.24109   190.60200     0.11018    91.75891   169.39800     0.11018
    18.30000    88.23944   190.61199     0.11006    91.76056   169.38801     0.11006
    18.40000    88.23777   190.62200     0.10994    91.76223   169.37800     0.10994
    18.50000    88.23611   190.63203     0.10981    91.76389   169.36797     0.10981
    18.60000    88.23444   190.64208     0.10969    91.76556   169.35792     0.10969
    18.70000    88.23277   190.65216     0.10957    91.76723   169.34784     0.10957
    18.80000    88.23110   190.66225     0.10945    91.76890   169.33775     0.10945
    18.90000    88.22942   190.67237     0.10933    91.77058   169.32763     0.10933
    19.00000    88.22773   190.68251     0.10920    91.77227   169.31749     0.10920
    19.10000    88.22605   190.69267     0.10908    91.77395   169.30733     0.10908
    19.20000    88.22436   190.70285     0.10896    91.77564   169.29715     0.10896
    19.30000    88.22267   190.71305     0.10884    91.77733   169.28695     0.10884
    19.40000    88.22097   190.72327     0.10872    91.77903   169.27673     0.10872
    19.50000    88.21927   190.73352     0.10859    91.78073   169.26648     0.10859
    19.60000    88.21757   190.74379     0.10847    91.78243   169.25621     0.10847
    19.70000    88.21586   190.75408     0.10835    91.78414   169.24592     0.10835
    19.80000    88.21415   190.76439     0.10823    91.78585   169.23561     0.10823
    19.90000    88.21244   190.77473     0.10811    91.78756   169.22527     0.10811
    20.00000    88.21072   190.78508     0.10799    91.78928   169.21492     0.10799
    20.10000    88.20900   190.79546     0.10786    91.79100   169.20454     0.10786
    20.20000    88.20728   190.80586     0.10774    91.79272   169.19414     0.10774
    20.30000    88.20555   190.81629     0.10762    91.79445   169.18371     0.10762
    20.40000    88.20382   190.82673     0.10750    91.79618   169.17327     0.10750
    20.50000    88.20208   190.83720     0.10738    91.79792   169.16280     0.10738
    20.60000    88.20034   190.84769     0.10725    91.79966   169.15231     0.10725
    20.70000    88.19860   190.85820     0.10713    91.80140   169.14180     0.10713
    20.80000    88.19685   190.86874     0.10701    91.80315   169.13126     0.10701
    20.90000    88.19510   190.87930     0.10689    91.80490   169.12070     0.10689
    21.00000    88.19335   190.88988     0.10677    91.80665   169.11012     0.10677
    21.10000    88.19159   190.90049     0.10665    91.80841   169.09951     0.10665
    21.20000    88.18983   190.91112     0.10652    91.81017   169.08888     0.10652
    21.30000    88.18806   190.92177     0.10640    91.81194   169.07823     0.10640
    21.40000    88.18629   190.93244     0.10628    91.81371   169.06756     0.10628
    21.50000    88.18452   190.94314     0.10616    91.81548   169.05686     0.10616
    21.60000    88.18274   190.95386     0.10604    91.81726   169.04614     0.10604
    21.70000    88.18096   190.96461     0.10592    91.81904   169.03539     0.10592
    21.80000    88.17918   190.97537     0.10580    91.82082   169.02463     0.10580
    21.90000    88.17739   190.98617     0.10567    91.82261   169.01383     0.10567
    22.00000    88.17560   190.99698     0.10555    91.82440   169.00302     0.10555
    22.10000    88.17381   191.00782     0.10543    91.82619   168.99218     0.10543
    22.20000    88.17201   191.01868     0.10531    91.82799   168.98132     0.10531
    22.30000    88.17020   191.02957     0.10519    91.82980   168.97043     0.10519
    22.40000    88.16840   191.04048     0.10507    91.83160   168.95952     0.10507
    22.50000    88.16658   191.05142     0.10495    91.83342   168.94858     0.10495
    22.60000    88.16477   191.06237     0.10482    91.83523   168.93763     0.10482
    22.70000    88.16295   191.07336     0.10470    91.83705   168.92664     0.10470
    22.80000    88.16113   191.08437     0.10458    91.83887   168.91563     0.10458
    22.90000    88.15930   191.09540     0.10446    91.84070   168.90460     0.10446
    23.00000    88.15747   191.10645     0.10434    91.84253   168.89355     0.10434
    23.10000    88.15563   191.11754     0.10422    91.84437   168.88246     0.10422
    23.20000    88.15380   191.12864     0.10410    91.84620   168.87136     0.10410
    23.30000    88.15195   191.13977     0.10397    91.84805   168.86023     0.10397
    23.40000    88.15011   191.15093     0.10385    91.84989   168.84907     0.10385
    23.50000    88.14826   191.16211     0.10373    91.85174   168.83789     0.10373
    23.60000    88.14640   191.17331     0.10361    91.85360   168.82669     0.10361
    23.70000    88.14454   191.18454     0.10349    91.85546   168.81546     0.10349
    23.80000    88.14268   191.19580     0.10337    91.85732   168.80420     0.10337
    23.90000    88.14081   191.20708     0.10325    91.85919   168.79292     0.10325
    24.00000    88.13894   191.21838     0.10313    91.86106   168.78162     0.10313
    24.10000    88.13707   191.22972     0.10300    91.86293   168.77028     0.10300
    24.20000    88.13519   191.24107     0.10288    91.86481   168.75893     0.10288
    24.30000    88.13330   191.25245     0.10276    91.86670   168.74755     0.10276
    24.40000    88.13142   191.26386     0.10264    91.86858   168.73614     0.10264
    24.50000    88.12952   191.27530     0.10252    91.87048   168.72470     0.10252
    24.60000    88.12763   191.28676     0.10240    91.87237   168.71324     0.10240
    24.70000    88.12573   191.29824     0.10228    91.87427   168.70176     0.10228
    24.80000    88.12382   191.30975     0.10216    91.87618   168.69025     0.10216
    24.90000    88.12192   191.32129     0.10203    91.87808   168.67871     0.10203
    25.00000    88.12000   191.33285     0.10191    91.88000   168.66715     0.10191
    25.10000    88.11809   191.34444     0.10179    91.88191   168.65556     0.10179
    25.20000    88.11616   191.35606     0.10167    91.88384   168.64394     0.10167
    25.30000    88.11424   191.36770     0.10155    91.88576   168.63230     0.10155
    25.40000    88.11231   191.37937     0.10143    91.88769   168.62063     0.10143
    25.50000    88.11037   191.39107     0.10131    91.88963   168.60893     0.10131
    25.60000    88.10844   191.40279     0.10119    91.89156   168.59721     0.10119
    25.70000    88.10649   191.41454     0.10107    91.89351   168.58546     0.10107
    25.80000    88.10455   191.42632     0.10095    91.89545   168.57368     0.10095
    25.90000    88.10260   191.43812     0.10082    91.89740   168.56188     0.10082
    26.00000    88.10064   191.44995     0.10070    91.89936   168.55005     0.10070
    26.10000    88.09868   191.46181     0.10058    91.90132   168.53819     0.10058
    26.20000    88.09671   191.47369     0.10046    91.90329   168.52631     0.10046
    26.30000    88.09475   191.48561     0.10034    91.90525   168.51439     0.10034
    26.40000    88.09277   191.49755     0.10022    91.90723   168.50245     0.10022
    26.50000    88.09079   191.50951     0.10010    91.90921   168.49049     0.10010
    26.60000    88.08881   191.52151     0.09998    91.91119   168.47849     0.09998
    26.70000    88.08682   191.53353     0.09986    91.91318   168.46647     0.09986
    26.80000    88.08483   191.54558     0.09974    91.91517   168.45442     0.09974
    26.90000    88.08284   191.55766     0.09962    91.91716   168.44234     0.09962
    27.00000    88.08084   191.56977     0.09950    91.91916   168.43023     0.09950
    27.10000    88.07883   191.58190     0.09937    91.92117   168.41810     0.09937
    27.20000    88.07682   191.59407     0.09925    91.92318   168.40593     0.09925
    27.30000    88.07481   191.60626     0.09913    91.92519   168.39374     0.09913
    27.40000    88.07279   191.61848     0.09901    91.92721   168.38152     0.09901
    27.50000    88.07077   191.63073     0.09889    91.92923   168.36927     0.09889
    27.60000    88.06874   191.64300     0.09877    91.93126   168.35700     0.09877
    27.70000    88.06671   191.65531     0.09865    91.93329   168.34469     0.09865
    27.80000    88.06467   191.66765     0.09853    91.93533   168.33235     0.09853
    27.90000    88.06263   191.68001     0.09841    91.93737   168.31999     0.09841
    28.00000    88.06058   191.69240     0.09829    91.93942   168.30760     0.09829
    28.10000    88.05853   191.70483     0.09817    91.94147   168.29517     0.09817
    28.20000    88.05647   191.71728     0.09805    91.94353   168.28272     0.09805
    28.30000    88.05441   191.72976     0.09793    91.94559   168.27024     0.09793
    28.40000    88.05235   191.74227     0.09781    91.94765   168.25773     0.09781
    28.50000    88.05028   191.75481     0.09768    91.94972   168.24519     0.09768
    28.60000    88.04820   191.76738     0.09756    91.95180   168.23262     0.09756
    28.70000    88.04612   191.77998     0.09744    91.95388   168.22002     0.09744
    28.80000    88.04404   191.79261     0.09732    91.95596   168.20739     0.09732
    28.90000    88.04195   191.80526     0.09720    91.95805   168.19474     0.09720
    29.00000    88.03985   191.81795     0.09708    91.96015   168.18205     0.09708
    29.10000    88.03776   191.83067     0.09696    91.96224   168.16933     0.09696
    29.20000    88.03565   191.84342     0.09684    91.96435   168.15658     0.09684
    29.30000    88.03354   191.85620     0.09672    91.96646   168.14380     0.09672
    29.40000    88.03143   191.86902     0.09660    91.96857   168.13098     0.09660
    29.50000    88.02931   191.88186     0.09648    91.97069   168.11814     0.09648
    29.60000    88.02719   191.89473     0.09636    91.97281   168.10527     0.09636
    29.70000    88.02506   191.90763     0.09624    91.97494   168.09237     0.09624
    29.80000    88.02292   191.92057     0.09612    91.97708   168.07943     0.09612
    29.90000    88.02079   191.93353     0.09600    91.97921   168.06647     0.09600
    30.00000    88.01864   191.94653     0.09588    91.98136   168.05347     0.09588
    30.10000    88.01649   191.95956     0.09576    91.98351   168.04044     0.09576
    30.20000    88.01434   191.97262     0.09564    91.98566   168.02738     0.09564
    30.30000    88.01218   191.98571     0.09552    91.98782   168.01429     0.09552
    30.40000    88.01002   191.99883     0.09540    91.98998   168.00117     0.09540
    30.50000    88.00785   192.01198     0.09528    91.99215   167.98802     0.09528
    30.60000    88.00567   192.02517     0.09516    91.99433   167.97483     0.09516
    30.70000    88.00349   192.03839     0.09504    91.99651   167.96161     0.09504
    30.80000    88.00131   192.05164     0.09492    91.99869   167.94836     0.09492
    30.90000    87.99912   192.06492     0.09480    92.00088   167.93508     0.09480
    31.00000    87.99693   192.07824     0.09467    92.00307   167.92176     0.09467
    31.10000    87.99473   192.09158     0.09455    92.00527   167.90842     0.09455
    31.20000    87.99252   192.10496     0.09443    92.00748   167.89504     0.09443
    31.30000    87.99031   192.11838     0.09431    92.00969   167.88162     0.09431
    31.40000    87.98809   192.13182     0.09419    92.01191   167.86818     0.09419
    31.50000    87.98587   192.14530     0.09407    92.01413   167.85470     0.09407
    31.60000    87.98365   192.15881     0.09395    92.01635   167.84119     0.09395
    31.70000    87.98142   192.17236     0.09383    92.01858   167.82764     0.09383
    31.80000    87.97918   192.18594     0.09371    92.02082   167.81406     0.09371
    31.90000    87.97694   192.19955     0.09359    92.02306   167.80045     0.09359
    32.00000    87.97469   192.21320     0.09347    92.02531   167.78680     0.09347
    32.10000    87.97243   192.22687     0.09335    92.02757   167.77313     0.09335
    32.20000    87.97018   192.24059     0.09323    92.02982   167.75941     0.09323
    32.30000    87.96791   192.25433     0.09311    92.03209   167.74567     0.09311
    32.40000    87.96564   192.26812     0.09299    92.03436   167.73188     0.09299
    32.50000    87.96337   192.28193     0.09287    92.03663   167.71807     0.09287
    32.60000    87.96109   192.29578     0.09275    92.03891   167.70422     0.09275
    32.70000    87.95880   192.30966     0.09263    92.04120   167.69034     0.09263
    32.80000    87.95651   192.32358     0.09251    92.04349   167.67642     0.09251
    32.90000    87.95421   192.33754     0.09239    92.04579   167.66246     0.09239
    33.00000    87.95191   192.35153     0.09227    92.04809   167.64847     0.09227
    33.10000    87.94960   192.36555     0.09215    92.05040   167.63445     0.09215
    33.20000    87.94729   192.37961     0.09203    92.05271   167.62039     0.09203
    33.30000    87.94497   192.39370     0.09191    92.05503   167.60630     0.09191
    33.40000    87.94264   192.40783     0.09179    92.05736   167.59217     0.09179
    33.50000    87.94031   192.42199     0.09167    92.05969   167.57801     0.09167
    33.60000    87.93797   192.43620     0.09155    92.06203   167.56380     0.09155
    33.70000    87.93563   192.45043     0.09143    92.06437   167.54957     0.09143
    33.80000    87.93328   192.46470     0.09131    92.06672   167.53530     0.09131
    33.90000    87.93093   192.47901     0.09119    92.06907   167.52099     0.09119
    34.00000    87.92857   192.49336     0.09108    92.07143   167.50664     0.09108
    34.10000    87.92620   192.50774     0.09096    92.07380   167.49226     0.09096
    34.20000    87.92383   192.52215     0.09084    92.07617   167.47785     0.09084
    34.30000    87.92145   192.53661     0.09072    92.07855   167.46339     0.09072
    34.40000    87.91907   192.55110     0.09060    92.08093   167.44890     0.09060
    34.50000    87.91668   192.56563     0.09048    92.08332   167.43437     0.09048
    34.60000    87.91429   192.58019     0.09036    92.08571   167.41981     0.09036
    34.70000    87.91189   192.59479     0.09024    92.08811   167.40521     0.09024
    34.80000    87.90948   192.60943     0.09012    92.09052   167.39057     0.09012
    34.90000    87.90707   192.62411     0.09000    92.09293   167.37589     0.09000
    35.00000    87.90465   192.63882     0.08988    92.09535   167.36118     0.08988
    35.10000    87.90222   192.65357     0.08976    92.09778   167.34643     0.08976
    35.20000    87.89979   192.66836     0.08964    92.10021   167.33164     0.08964
    35.30000    87.89735   192.68319     0.08952    92.10265   167.31681     0.08952
    35.40000    87.89491   192.69806     0.08940    92.10509   167.30194     0.08940
    35.50000    87.89246   192.71296     0.08928    92.10754   167.28704     0.08928
    35.60000    87.89001   192.72790     0.08916    92.10999   167.27210     0.08916
    35.70000    87.88754   192.74288     0.08904    92.11246   167.25712     0.08904
    35.80000    87.88508   192.75791     0.08892    92.11492   167.24209     0.08892
    35.90000    87.88260   192.77296     0.08880    92.11740   167.22704     0.08880
    36.00000    87.88012   192.78806     0.08868    92.11988   167.21194     0.08868
    36.10000    87.87763   192.80320     0.08856    92.12237   167.19680     0.08856
    36.20000    87.87514   192.81838     0.08844    92.12486   167.18162     0.08844
    36.30000    87.87264   192.83359     0.08832    92.12736   167.16641     0.08832
    36.40000    87.87014   192.84885     0.08821    92.12986   167.15115     0.08821
    36.50000    87.86763   192.86415     0.08809    92.13237   167.13585     0.08809
    36.60000    87.86511   192.87948     0.08797    92.13489   167.12052     0.08797
    36.70000    87.86258   192.89486     0.08785    92.13742   167.10514     0.08785
    36.80000    87.86005   192.91027     0.08773    92.13995   167.08973     0.08773
    36.90000    87.85751   192.92573     0.08761    92.14249   167.07427     0.08761
    37.00000    87.85497   192.94123     0.08749    92.14503   167.05877     0.08749
    37.10000    87.85242   192.95677     0.08737    92.14758   167.04323     0.08737
    37.20000    87.84986   192.97235     0.08725    92.15014   167.02765     0.08725
    37.30000    87.84730   192.98797     0.08713    92.15270   167.01203     0.08713
    37.40000    87.84473   193.00363     0.08701    92.15527   166.99637     0.08701
    37.50000    87.84215   193.01933     0.08689    92.15785   166.98067     0.08689
    37.60000    87.83957   193.03508     0.08677    92.16043   166.96492     0.08677
    37.70000    87.83698   193.05086     0.08665    92.16302   166.94914     0.08665
    37.80000    87.83438   193.06669     0.08654    92.16562   166.93331     0.08654
    37.90000    87.83178   193.08256     0.08642    92.16822   166.91744     0.08642
    38.00000    87.82917   193.09848     0.08630    92.17083   166.90152     0.08630
    38.10000    87.82655   193.11443     0.08618    92.17345   166.88557     0.08618
    38.20000    87.82393   193.13043     0.08606    92.17607   166.86957     0.08606
    38.30000    87.82129   193.14647     0.08594    92.17871   166.85353     0.08594
    38.40000    87.81866   193.16256     0.08582    92.18134   166.83744     0.08582
    38.50000    87.81601   193.17868     0.08570    92.18399   166.82132     0.08570
    38.60000    87.81336   193.19485     0.08558    92.18664   166.80515     0.08558
    38.70000    87.81070   193.21107     0.08546    92.18930   166.78893     0.08546
    38.80000    87.80804   193.22732     0.08534    92.19196   166.77268     0.08534
    38.90000    87.80537   193.24363     0.08523    92.19463   166.75637     0.08523
    39.00000    87.80269   193.25997     0.08511    92.19731   166.74003     0.08511
    39.10000    87.80000   193.27636     0.08499    92.20000   166.72364     0.08499
    39.20000    87.79731   193.29279     0.08487    92.20269   166.70721     0.08487
    39.30000    87.79461   193.30927     0.08475    92.20539   166.69073     0.08475
    39.40000    87.79190   193.32580     0.08463    92.20810   166.67420     0.08463
    39.50000    87.78918   193.34236     0.08451    92.21082   166.65764     0.08451
    39.60000    87.78646   193.35898     0.08439    92.21354   166.64102     0.08439
    39.70000    87.78373   193.37564     0.08427    92.21627   166.62436     0.08427
    39.80000    87.78100   193.39234     0.08416    92.21900   166.60766     0.08416
    39.90000    87.77825   193.40909     0.08404    92.22175   166.59091     0.08404
    40.00000    87.77550   193.42589     0.08392    92.22450   166.57411     0.08392
