 # applied field (T), theta (degree), phi (degree), abs for RE 3-4
     0.00000     0.00000     0.00000     4.71521     0.00000     0.00000     4.71521
     0.10000     0.16862    52.73276     4.71521     0.16862    37.26724     4.71521
     0.20000     0.33724    52.73269     4.71521     0.33724    37.26731     4.71521
     0.30000     0.50587    52.73257     4.71520     0.50587    37.26743     4.71520
     0.40000     0.67451    52.73240     4.71520     0.67451    37.26760     4.71520
     0.50000     0.84316    52.73218     4.71520     0.84316    37.26782     4.71520
     0.60000     1.01182    52.73192     4.71519     1.01182    37.26808     4.71519
     0.70000     1.18050    52.73161     4.71518     1.18050    37.26839     4.71518
     0.80000     1.34921    52.73125     4.71517     1.34921    37.26875     4.71517
     0.90000     1.51794    52.73084     4.71516     1.51794    37.26916     4.71516
     1.00000     1.72811    52.73074     4.71515     1.72811    37.26926     4.71515
     1.10000     1.89691    52.73018     4.71514     1.89691    37.26982     4.71514
     1.20000     2.06575    52.72958     4.71513     2.06575    37.27042     4.71513
     1.30000     2.23462    52.72893     4.71511     2.23462    37.27107     4.71511
     1.40000     2.40353    52.72824     4.71510     2.40353    37.27176     4.71510
     1.50000     2.57249    52.72751     4.71508     2.57249    37.27249     4.71508
     1.60000     2.74149    52.72673     4.71506     2.74149    37.27327     4.71506
     1.70000     2.91055    52.72590     4.71505     2.91055    37.27410     4.71505
     1.80000     3.07966    52.72503     4.71503     3.07966    37.27497     4.71503
     1.90000     3.24882    52.72410     4.71500     3.24882    37.27590     4.71500
     2.00000     3.41805    52.72314     4.71498     3.41805    37.27686     4.71498
     2.10000     3.58734    52.72212     4.71496     3.58734    37.27788     4.71496
     2.20000     3.75669    52.72105     4.71494     3.75669    37.27895     4.71494
     2.30000     3.92612    52.71994     4.71491     3.92612    37.28006     4.71491
     2.40000     4.09561    52.71878     4.71489     4.09561    37.28122     4.71489
     2.50000     4.26519    52.71756     4.71486     4.26519    37.28244     4.71486
     2.60000     4.43484    52.71630     4.71483     4.43484    37.28370     4.71483
     2.70000     4.64623    52.71486     4.71479     4.64623    37.28514     4.71479
     2.80000     4.81607    52.71348     4.71476     4.81607    37.28652     4.71476
     2.90000     4.98600    52.71205     4.71473     4.98600    37.28795     4.71473
     3.00000     5.15602    52.71058     4.71470     5.15602    37.28942     4.71470
     3.10000     5.32613    52.70905     4.71466     5.32613    37.29095     4.71466
     3.20000     5.49634    52.70748     4.71463     5.49634    37.29252     4.71463
     3.30000     5.66665    52.70585     4.71459     5.66665    37.29415     4.71459
     3.40000     5.83707    52.70417     4.71455     5.83707    37.29583     4.71455
     3.50000     6.00759    52.70245     4.71452     6.00759    37.29755     4.71452
     3.60000     6.17823    52.70067     4.71448     6.17823    37.29933     4.71448
     3.70000     6.34897    52.69884     4.71444     6.34897    37.30116     4.71444
     3.80000     6.51984    52.69696     4.71439     6.51984    37.30304     4.71439
     3.90000     6.69082    52.69502     4.71435     6.69082    37.30498     4.71435
     4.00000     6.86192    52.69304     4.71431     6.86192    37.30696     4.71431
     4.10000     7.07519    52.69064     4.71425     7.07519    37.30936     4.71425
     4.20000     7.24658    52.68854     4.71421     7.24658    37.31146     4.71421
     4.30000     7.41811    52.68638     4.71416     7.41811    37.31362     4.71416
     4.40000     7.58976    52.68417     4.71411     7.58976    37.31583     4.71411
     4.50000     7.76156    52.68191     4.71406     7.76156    37.31809     4.71406
     4.60000     7.93350    52.67960     4.71401     7.93350    37.32040     4.71401
     4.70000     8.10558    52.67723     4.71396     8.10558    37.32277     4.71396
     4.80000     8.27781    52.67481     4.71391     8.27781    37.32519     4.71391
     4.90000     8.45019    52.67234     4.71385     8.45019    37.32766     4.71385
     5.00000     8.62273    52.66981     4.71380     8.62273    37.33019     4.71380
     5.10000     8.79542    52.66723     4.71374     8.79542    37.33277     4.71374
     5.20000     8.96827    52.66459     4.71368     8.96827    37.33541     4.71368
     5.30000     9.18377    52.66135     4.71361     9.18377    37.33865     4.71361
     5.40000     9.35699    52.65859     4.71355     9.35699    37.34141     4.71355
     5.50000     9.53038    52.65578     4.71349     9.53038    37.34422     4.71349
     5.60000     9.70394    52.65290     4.71343     9.70394    37.34710     4.71343
     5.70000     9.87768    52.64998     4.71337     9.87768    37.35002     4.71337
     5.80000    10.05159    52.64699     4.71330    10.05159    37.35301     4.71330
     5.90000    10.22569    52.64395     4.71324    10.22569    37.35605     4.71324
     6.00000    10.39997    52.64085     4.71317    10.39997    37.35915     4.71317
     6.10000    10.57444    52.63770     4.71311    10.57444    37.36230     4.71311
     6.20000    10.74910    52.63449     4.71304    10.74910    37.36551     4.71304
     6.30000    10.96689    52.63052     4.71295    10.96689    37.36948     4.71295
     6.40000    11.14199    52.62718     4.71288    11.14199    37.37282     4.71288
     6.50000    11.31729    52.62378     4.71281    11.31729    37.37622     4.71281
     6.60000    11.49278    52.62032     4.71274    11.49278    37.37968     4.71274
     6.70000    11.66849    52.61681     4.71267    11.66849    37.38319     4.71267
     6.80000    11.84440    52.61323     4.71259    11.84440    37.38677     4.71259
     6.90000    12.02052    52.60959     4.71252    12.02052    37.39041     4.71252
     7.00000    12.19686    52.60590     4.71244    12.19686    37.39410     4.71244
     7.10000    12.37341    52.60214     4.71236    12.37341    37.39786     4.71236
     7.20000    12.59362    52.59749     4.71227    12.59362    37.40251     4.71227
     7.30000    12.77067    52.59360     4.71219    12.77067    37.40640     4.71219
     7.40000    12.94795    52.58965     4.71210    12.94795    37.41035     4.71210
     7.50000    13.12546    52.58563     4.71202    13.12546    37.41437     4.71202
     7.60000    13.30320    52.58156     4.71194    13.30320    37.41844     4.71194
     7.70000    13.48117    52.57742     4.71186    13.48117    37.42258     4.71186
     7.80000    13.65939    52.57322     4.71177    13.65939    37.42678     4.71177
     7.90000    13.88168    52.56801     4.71167    13.88168    37.43199     4.71167
     8.00000    14.06044    52.56366     4.71158    14.06044    37.43634     4.71158
     8.10000    14.23945    52.55926     4.71149    14.23945    37.44074     4.71149
     8.20000    14.41870    52.55479     4.71140    14.41870    37.44521     4.71140
     8.30000    14.59821    52.55025     4.71131    14.59821    37.44975     4.71131
     8.40000    14.77797    52.54566     4.71122    14.77797    37.45434     4.71122
     8.50000    14.95799    52.54099     4.71113    14.95799    37.45901     4.71113
     8.60000    15.18257    52.53520     4.71101    15.18257    37.46480     4.71101
     8.70000    15.36318    52.53039     4.71092    15.36318    37.46961     4.71092
     8.80000    15.54406    52.52551     4.71082    15.54406    37.47449     4.71082
     8.90000    15.72521    52.52057     4.71073    15.72521    37.47943     4.71073
     9.00000    15.90662    52.51556     4.71063    15.90662    37.48444     4.71063
     9.10000    16.08832    52.51048     4.71053    16.08832    37.48952     4.71053
     9.20000    16.31501    52.50417     4.71041    16.31501    37.49583     4.71041
     9.30000    16.49733    52.49894     4.71031    16.49733    37.50106     4.71031
     9.40000    16.67993    52.49364     4.71021    16.67993    37.50636     4.71021
     9.50000    16.86282    52.48828     4.71011    16.86282    37.51172     4.71011
     9.60000    17.04600    52.48284     4.71000    17.04600    37.51716     4.71000
     9.70000    17.27457    52.47608     4.70987    17.27457    37.52392     4.70987
     9.80000    17.45840    52.47049     4.70977    17.45840    37.52951     4.70977
     9.90000    17.64254    52.46483     4.70966    17.64254    37.53517     4.70966
    10.00000    17.82697    52.45909     4.70956    17.82697    37.54091     4.70956
    10.10000    18.01171    52.45329     4.70945    18.01171    37.54671     4.70945
    10.20000    18.24224    52.44607     4.70931    18.24224    37.55393     4.70931
    10.30000    18.42766    52.44010     4.70920    18.42766    37.55990     4.70920
    10.40000    18.61340    52.43407     4.70909    18.61340    37.56593     4.70909
    10.50000    18.79945    52.42796     4.70898    18.79945    37.57204     4.70898
    10.60000    18.98581    52.42177     4.70887    18.98581    37.57823     4.70887
    10.70000    19.21838    52.41408     4.70873    19.21838    37.58592     4.70873
    10.80000    19.40547    52.40773     4.70861    19.40547    37.59227     4.70861
    10.90000    19.59287    52.40131     4.70850    19.59287    37.59869     4.70850
    11.00000    19.78060    52.39482     4.70838    19.78060    37.60518     4.70838
    11.10000    20.01489    52.38673     4.70824    20.01489    37.61327     4.70824
    11.20000    20.20336    52.38006     4.70812    20.20336    37.61994     4.70812
    11.30000    20.39217    52.37332     4.70800    20.39217    37.62668     4.70800
    11.40000    20.58131    52.36651     4.70788    20.58131    37.63349     4.70788
    11.50000    20.77078    52.35962     4.70776    20.77078    37.64038     4.70776
    11.60000    21.00728    52.35103     4.70761    21.00728    37.64897     4.70761
    11.70000    21.19752    52.34397     4.70748    21.19752    37.65603     4.70748
    11.80000    21.38811    52.33683     4.70736    21.38811    37.66317     4.70736
    11.90000    21.57905    52.32961     4.70724    21.57905    37.67039     4.70724
    12.00000    21.81738    52.32061     4.70708    21.81738    37.67939     4.70708
    12.10000    22.00911    52.31322     4.70695    22.00911    37.68678     4.70695
    12.20000    22.20119    52.30574     4.70683    22.20119    37.69426     4.70683
    12.30000    22.44095    52.29643     4.70667    22.44095    37.70357     4.70667
    12.40000    22.63384    52.28878     4.70654    22.63384    37.71122     4.70654
    12.50000    22.82709    52.28104     4.70641    22.82709    37.71896     4.70641
    12.60000    23.02070    52.27323     4.70628    23.02070    37.72677     4.70628
    12.70000    23.26239    52.26350     4.70612    23.26239    37.73650     4.70612
    12.80000    23.45682    52.25550     4.70599    23.45682    37.74450     4.70599
    12.90000    23.65163    52.24742     4.70585    23.65163    37.75258     4.70585
    13.00000    23.89482    52.23736     4.70569    23.89482    37.76264     4.70569
    13.10000    24.09046    52.22910     4.70555    24.09046    37.77090     4.70555
    13.20000    24.28649    52.22076     4.70542    24.28649    37.77924     4.70542
    13.30000    24.53120    52.21036     4.70525    24.53120    37.78964     4.70525
    13.40000    24.72808    52.20183     4.70511    24.72808    37.79817     4.70511
    13.50000    24.92534    52.19322     4.70497    24.92534    37.80678     4.70497
    13.60000    25.17161    52.18249     4.70480    25.17161    37.81751     4.70480
    13.70000    25.36974    52.17369     4.70466    25.36974    37.82631     4.70466
    13.80000    25.56825    52.16481     4.70452    25.56825    37.83519     4.70452
    13.90000    25.81610    52.15374     4.70435    25.81610    37.84626     4.70435
    14.00000    26.01550    52.14467     4.70421    26.01550    37.85533     4.70421
    14.10000    26.21529    52.13551     4.70406    26.21529    37.86449     4.70406
    14.20000    26.46474    52.12410     4.70389    26.46474    37.87590     4.70389
    14.30000    26.66542    52.11475     4.70374    26.66542    37.88525     4.70374
    14.40000    26.86650    52.10531     4.70360    26.86650    37.89469     4.70360
    14.50000    27.11758    52.09355     4.70342    27.11758    37.90645     4.70342
    14.60000    27.31957    52.08393     4.70327    27.31957    37.91607     4.70327
    14.70000    27.52196    52.07421     4.70313    27.52196    37.92579     4.70313
    14.80000    27.77468    52.06211     4.70295    27.77468    37.93789     4.70295
    14.90000    27.97799    52.05220     4.70280    27.97799    37.94780     4.70280
    15.00000    28.18172    52.04220     4.70265    28.18172    37.95780     4.70265
    15.10000    28.43610    52.02975     4.70246    28.43610    37.97025     4.70246
    15.20000    28.64076    52.01955     4.70231    28.64076    37.98045     4.70231
    15.30000    28.89631    52.00685     4.70213    28.89631    37.99315     4.70213
    15.40000    29.10190    51.99647     4.70198    29.10190    38.00353     4.70198
    15.50000    29.30791    51.98599     4.70183    29.30791    38.01401     4.70183
    15.60000    29.56516    51.97294     4.70164    29.56516    38.02706     4.70164
    15.70000    29.77211    51.96227     4.70148    29.77211    38.03773     4.70148
    15.80000    30.03055    51.94897     4.70129    30.03055    38.05103     4.70129
    15.90000    30.23846    51.93810     4.70114    30.23846    38.06190     4.70114
    16.00000    30.44680    51.92714     4.70098    30.44680    38.07286     4.70098
    16.10000    30.70696    51.91349     4.70079    30.70696    38.08651     4.70079
    16.20000    30.91627    51.90233     4.70064    30.91627    38.09767     4.70064
    16.30000    31.17764    51.88843     4.70044    31.17764    38.11157     4.70044
    16.40000    31.38791    51.87708     4.70028    31.38791    38.12292     4.70028
    16.50000    31.65051    51.86293     4.70009    31.65051    38.13707     4.70009
    16.60000    31.86176    51.85138     4.69993    31.86176    38.14862     4.69993
    16.70000    32.12557    51.83699     4.69973    32.12557    38.16301     4.69973
    16.80000    32.33781    51.82524     4.69957    32.33781    38.17476     4.69957
    16.90000    32.55048    51.81340     4.69941    32.55048    38.18660     4.69941
    17.00000    32.81608    51.79866     4.69921    32.81608    38.20134     4.69921
    17.10000    33.02974    51.78662     4.69905    33.02974    38.21338     4.69905
    17.20000    33.29658    51.77163     4.69885    33.29658    38.22837     4.69885
    17.30000    33.51124    51.75940     4.69869    33.51124    38.24060     4.69869
    17.40000    33.77933    51.74416     4.69849    33.77933    38.25584     4.69849
    17.50000    33.99500    51.73173     4.69833    33.99500    38.26827     4.69833
    17.60000    34.26435    51.71625     4.69812    34.26435    38.28375     4.69812
    17.70000    34.48102    51.70363     4.69796    34.48102    38.29637     4.69796
    17.80000    34.75163    51.68791     4.69775    34.75163    38.31209     4.69775
    17.90000    34.96931    51.67509     4.69759    34.96931    38.32491     4.69759
    18.00000    35.24120    51.65912     4.69738    35.24120    38.34088     4.69738
    18.10000    35.45990    51.64611     4.69722    35.45990    38.35389     4.69722
    18.20000    35.73306    51.62991     4.69701    35.73306    38.37009     4.69701
    18.30000    35.95279    51.61671     4.69684    35.95279    38.38329     4.69684
    18.40000    36.22723    51.60027     4.69663    36.22723    38.39973     4.69663
    18.50000    36.44799    51.58687     4.69647    36.44799    38.41313     4.69647
    18.60000    36.72372    51.57019     4.69626    36.72372    38.42981     4.69626
    18.70000    36.94551    51.55661     4.69609    36.94551    38.44339     4.69609
    18.80000    37.22254    51.53970     4.69588    37.22254    38.46030     4.69588
    18.90000    37.44537    51.52593     4.69571    37.44537    38.47407     4.69571
    19.00000    37.72370    51.50879     4.69550    37.72370    38.49121     4.69550
    19.10000    37.94757    51.49484     4.69532    37.94757    38.50516     4.69532
    19.20000    38.22721    51.47747     4.69511    38.22721    38.52253     4.69511
    19.30000    38.45212    51.46333     4.69494    38.45212    38.53667     4.69494
    19.40000    38.73308    51.44573     4.69473    38.73308    38.55427     4.69473
    19.50000    38.95905    51.43142     4.69455    38.95905    38.56858     4.69455
    19.60000    39.24132    51.41360     4.69434    39.24132    38.58640     4.69434
    19.70000    39.46835    51.39911     4.69416    39.46835    38.60089     4.69416
    19.80000    39.75195    51.38107     4.69395    39.75195    38.61893     4.69395
    19.90000    39.98004    51.36640     4.69377    39.98004    38.63360     4.69377
    20.00000    40.26497    51.34815     4.69356    40.26497    38.65185     4.69356
    20.10000    40.49413    51.33331     4.69338    40.49413    38.66669     4.69338
    20.20000    40.78040    51.31484     4.69316    40.78040    38.68516     4.69316
    20.30000    41.06742    51.29626     4.69294    41.06742    38.70374     4.69294
    20.40000    41.29824    51.28116     4.69276    41.29824    38.71884     4.69276
    20.50000    41.58661    51.26238     4.69255    41.58661    38.73762     4.69255
    20.60000    41.81851    51.24712     4.69237    41.81851    38.75288     4.69237
    20.70000    42.10823    51.22813     4.69215    42.10823    38.77187     4.69215
    20.80000    42.34122    51.21271     4.69197    42.34122    38.78729     4.69197
    20.90000    42.63231    51.19353     4.69174    42.63231    38.80647     4.69174
    21.00000    42.86639    51.17796     4.69156    42.86639    38.82204     4.69156
    21.10000    43.15884    51.15859     4.69134    43.15884    38.84141     4.69134
    21.20000    43.39401    51.14286     4.69116    43.39401    38.85714     4.69116
    21.30000    43.68784    51.12331     4.69094    43.68784    38.87669     4.69094
    21.40000    43.98243    51.10365     4.69071    43.98243    38.89635     4.69071
    21.50000    44.21932    51.08771     4.69053    44.21932    38.91229     4.69053
    21.60000    44.51530    51.06787     4.69030    44.51530    38.93213     4.69030
    21.70000    44.75330    51.05179     4.69012    44.75330    38.94821     4.69012
    21.80000    45.05067    51.03179     4.68989    45.05067    38.96821     4.68989
    21.90000    45.28978    51.01557     4.68971    45.28978    38.98443     4.68971
    22.00000    45.58856    50.99541     4.68948    45.58856    39.00459     4.68948
    22.10000    45.88811    50.97516     4.68925    45.88811    39.02484     4.68925
    22.20000    46.12897    50.95875     4.68906    46.12897    39.04125     4.68906
    22.30000    46.42994    50.93835     4.68883    46.42994    39.06165     4.68883
    22.40000    46.67194    50.92182     4.68864    46.67194    39.07818     4.68864
    22.50000    46.97433    50.90128     4.68841    46.97433    39.09872     4.68841
    22.60000    47.21746    50.88464     4.68822    47.21746    39.11536     4.68822
    22.70000    47.52128    50.86395     4.68799    47.52128    39.13605     4.68799
    22.80000    47.76556    50.84721     4.68780    47.76556    39.15279     4.68780
    22.90000    48.07082    50.82640     4.68757    48.07082    39.17360     4.68757
    23.00000    48.37688    50.80552     4.68733    48.37688    39.19448     4.68733
    23.10000    48.62295    50.78862     4.68714    48.62295    39.21138     4.68714
    23.20000    48.93047    50.76763     4.68691    48.93047    39.23237     4.68691
    23.30000    49.17771    50.75065     4.68671    49.17771    39.24935     4.68671
    23.40000    49.48669    50.72955     4.68648    49.48669    39.27045     4.68648
    23.50000    49.79649    50.70840     4.68624    49.79649    39.29160     4.68624
    23.60000    50.04555    50.69129     4.68605    50.04555    39.30871     4.68605
    23.70000    50.35682    50.67004     4.68581    50.35682    39.32996     4.68581
    23.80000    50.60706    50.65287     4.68561    50.60706    39.34713     4.68561
    23.90000    50.91983    50.63154     4.68537    50.91983    39.36846     4.68537
    24.00000    51.17126    50.61430     4.68518    51.17126    39.38570     4.68518
    24.10000    51.48553    50.59290     4.68493    51.48553    39.40710     4.68493
    24.20000    51.80063    50.57147     4.68469    51.80063    39.42853     4.68469
    24.30000    52.05393    50.55415     4.68449    52.05393    39.44585     4.68449
    24.40000    52.37055    50.53266     4.68425    52.37055    39.46734     4.68425
    24.50000    52.62506    50.51530     4.68405    52.62506    39.48470     4.68405
    24.60000    52.94320    50.49377     4.68381    52.94320    39.50623     4.68381
    24.70000    53.26220    50.47221     4.68356    53.26220    39.52779     4.68356
    24.80000    53.51862    50.45481     4.68336    53.51862    39.54519     4.68336
    24.90000    53.83916    50.43323     4.68311    53.83916    39.56677     4.68311
    25.00000    54.09681    50.41581     4.68291    54.09681    39.58419     4.68291
    25.10000    54.41890    50.39421     4.68266    54.41890    39.60579     4.68266
    25.20000    54.74186    50.37261     4.68241    54.74186    39.62739     4.68241
    25.30000    55.00145    50.35518     4.68221    55.00145    39.64482     4.68221
    25.40000    55.32598    50.33358     4.68196    55.32598    39.66642     4.68196
    25.50000    55.65140    50.31199     4.68171    55.65140    39.68801     4.68171
    25.60000    55.91294    50.29458     4.68151    55.91294    39.70542     4.68151
    25.70000    56.23994    50.27301     4.68125    56.23994    39.72699     4.68125
    25.80000    56.56783    50.25146     4.68100    56.56783    39.74854     4.68100
    25.90000    56.83136    50.23409     4.68080    56.83136    39.76591     4.68080
    26.00000    57.16085    50.21259     4.68054    57.16085    39.78741     4.68054
    26.10000    57.49124    50.19111     4.68029    57.49124    39.80889     4.68029
    26.20000    57.75677    50.17381     4.68008    57.75677    39.82619     4.68008
    26.30000    58.08878    50.15239     4.67982    58.08878    39.84761     4.67982
    26.40000    58.42169    50.13102     4.67957    58.42169    39.86898     4.67957
    26.50000    58.75552    50.10969     4.67931    58.75552    39.89031     4.67931
    26.60000    59.02379    50.09253     4.67910    59.02379    39.90747     4.67910
    26.70000    59.35925    50.07129     4.67885    59.35925    39.92871     4.67885
    26.80000    59.69564    50.05012     4.67859    59.69564    39.94988     4.67859
    26.90000    60.03294    50.02900     4.67833    60.03294    39.97100     4.67833
    27.00000    60.30398    50.01203     4.67812    60.30398    39.98797     4.67812
    27.10000    60.64294    49.99104     4.67786    60.64294    40.00896     4.67786
    27.20000    60.98283    49.97013     4.67760    60.98283    40.02987     4.67760
    27.30000    61.32364    49.94929     4.67734    61.32364    40.05071     4.67734
    27.40000    61.66539    49.92855     4.67709    61.66539    40.07145     4.67709
    27.50000    62.00806    49.90789     4.67683    62.00806    40.09211     4.67683
    27.60000    62.28339    49.89130     4.67661    62.28339    40.10870     4.67661
    27.70000    62.62775    49.87081     4.67636    62.62775    40.12919     4.67636
    27.80000    62.97304    49.85043     4.67610    62.97304    40.14957     4.67610
    27.90000    63.31926    49.83016     4.67584    63.31926    40.16984     4.67584
    28.00000    63.66643    49.81000     4.67558    63.66643    40.19000     4.67558
    28.10000    64.01453    49.78996     4.67532    64.01453    40.21004     4.67532
    28.20000    64.36357    49.77005     4.67506    64.36357    40.22995     4.67506
    28.30000    64.71354    49.75026     4.67480    64.71354    40.24974     4.67480
    28.40000    65.13428    49.72682     4.67449    65.13428    40.27318     4.67449
    28.50000    65.48632    49.70733     4.67423    65.48632    40.29267     4.67423
    28.60000    65.83930    49.68798     4.67398    65.83930    40.31202     4.67398
    28.70000    66.19322    49.66879     4.67372    66.19322    40.33121     4.67372
    28.80000    66.54807    49.64975     4.67346    66.54807    40.35025     4.67346
    28.90000    66.97467    49.62724     4.67316    66.97467    40.37276     4.67316
    29.00000    67.33157    49.60856     4.67291    67.33157    40.39144     4.67291
    29.10000    67.68940    49.59005     4.67265    67.68940    40.40995     4.67265
    29.20000    68.11958    49.56819     4.67235    68.11958    40.43181     4.67235
    29.30000    68.47944    49.55008     4.67210    68.47944    40.44992     4.67210
    29.40000    68.91205    49.52871     4.67180    68.91205    40.47129     4.67180
    29.50000    69.27392    49.51102     4.67155    69.27392    40.48898     4.67155
    29.60000    69.70896    49.49017     4.67126    69.70896    40.50983     4.67126
    29.70000    70.14529    49.46962     4.67097    70.14529    40.53038     4.67097
    29.80000    70.58293    49.44937     4.67068    70.58293    40.55063     4.67068
    29.90000    71.02185    49.42943     4.67039    71.02185    40.57057     4.67039
    30.00000    71.46205    49.40982     4.67011    71.46205    40.59018     4.67011
    30.10000    71.90351    49.39054     4.66983    71.90351    40.60946     4.66983
    30.20000    72.34622    49.37160     4.66955    72.34622    40.62840     4.66955
    30.30000    72.79016    49.35300     4.66928    72.79016    40.64700     4.66928
    30.40000    73.30933    49.33186     4.66897    73.30933    40.66814     4.66897
    30.50000    73.75589    49.31405     4.66870    73.75589    40.68595     4.66870
    30.60000    74.27809    49.29384     4.66840    74.27809    40.70616     4.66840
    30.70000    74.80188    49.27416     4.66810    74.80188    40.72584     4.66810
    30.80000    75.32722    49.25501     4.66781    75.32722    40.74499     4.66781
    30.90000    75.85408    49.23642     4.66752    75.85408    40.76358     4.66752
    31.00000    76.45781    49.21593     4.66721    76.45781    40.78407     4.66721
    31.10000    77.06344    49.19620     4.66690    77.06344    40.80380     4.66690
    31.20000    77.67089    49.17723     4.66660    77.67089    40.82277     4.66660
    31.30000    78.28011    49.15906     4.66632    78.28011    40.84094     4.66632
    31.40000    78.96735    49.13964     4.66601    78.96735    40.86036     4.66601
    31.50000    79.73323    49.11935     4.66568    79.73323    40.88065     4.66568
    31.60000    80.50152    49.10037     4.66538    80.50152    40.89963     4.66538
    31.70000    81.27205    49.08273     4.66509    81.27205    40.91727     4.66509
    31.80000    82.19925    49.06348     4.66478    82.19925    40.93652     4.66478
    31.90000    83.28427    49.04366     4.66445    83.28427    40.95634     4.66445
    32.00000    84.45034    49.02557     4.66415    84.45034    40.97443     4.66415
    32.10000    86.08771    49.00596     4.66383    86.08771    40.99404     4.66383
    32.20000    89.21677    48.98729     4.66352    89.21677    41.01271     4.66352
    32.30000    90.00000    48.98605     4.66348    90.00000    41.01395     4.66348
    32.40000    90.00000    48.98556     4.66346    90.00000    41.01444     4.66346
    32.50000    90.00000    48.98508     4.66344    90.00000    41.01492     4.66344
    32.60000    90.00000    48.98459     4.66343    90.00000    41.01541     4.66343
    32.70000    90.00000    48.98411     4.66341    90.00000    41.01589     4.66341
    32.80000    90.00000    48.98362     4.66339    90.00000    41.01638     4.66339
    32.90000    90.00000    48.98314     4.66337    90.00000    41.01686     4.66337
    33.00000    90.00000    48.98265     4.66335    90.00000    41.01735     4.66335
    33.10000    90.00000    48.98217     4.66333    90.00000    41.01783     4.66333
    33.20000    90.00000    48.98169     4.66331    90.00000    41.01831     4.66331
    33.30000    90.00000    48.98120     4.66329    90.00000    41.01880     4.66329
    33.40000    90.00000    48.98072     4.66327    90.00000    41.01928     4.66327
    33.50000    90.00000    48.98023     4.66325    90.00000    41.01977     4.66325
    33.60000    90.00000    48.97975     4.66323    90.00000    41.02025     4.66323
    33.70000    90.00000    48.97927     4.66321    90.00000    41.02073     4.66321
    33.80000    90.00000    48.97878     4.66319    90.00000    41.02122     4.66319
    33.90000    90.00000    48.97830     4.66317    90.00000    41.02170     4.66317
    34.00000    90.00000    48.97782     4.66315    90.00000    41.02218     4.66315
    34.10000    90.00000    48.97734     4.66313    90.00000    41.02266     4.66313
    34.20000    90.00000    48.97685     4.66311    90.00000    41.02315     4.66311
    34.30000    90.00000    48.97637     4.66309    90.00000    41.02363     4.66309
    34.40000    90.00000    48.97589     4.66307    90.00000    41.02411     4.66307
    34.50000    90.00000    48.97541     4.66305    90.00000    41.02459     4.66305
    34.60000    90.00000    48.97493     4.66303    90.00000    41.02507     4.66303
    34.70000    90.00000    48.97445     4.66301    90.00000    41.02555     4.66301
    34.80000    90.00000    48.97396     4.66299    90.00000    41.02604     4.66299
    34.90000    90.00000    48.97348     4.66297    90.00000    41.02652     4.66297
    35.00000    90.00000    48.97300     4.66295    90.00000    41.02700     4.66295
    35.10000    90.00000    48.97252     4.66293    90.00000    41.02748     4.66293
    35.20000    90.00000    48.97204     4.66291    90.00000    41.02796     4.66291
    35.30000    90.00000    48.97156     4.66289    90.00000    41.02844     4.66289
    35.40000    90.00000    48.97108     4.66287    90.00000    41.02892     4.66287
    35.50000    90.00000    48.97060     4.66285    90.00000    41.02940     4.66285
    35.60000    90.00000    48.97012     4.66283    90.00000    41.02988     4.66283
    35.70000    90.00000    48.96964     4.66281    90.00000    41.03036     4.66281
    35.80000    90.00000    48.96916     4.66279    90.00000    41.03084     4.66279
    35.90000    90.00000    48.96868     4.66277    90.00000    41.03132     4.66277
    36.00000    90.00000    48.96820     4.66275    90.00000    41.03180     4.66275
    36.10000    90.00000    48.96772     4.66273    90.00000    41.03228     4.66273
    36.20000    90.00000    48.96725     4.66271    90.00000    41.03275     4.66271
    36.30000    90.00000    48.96677     4.66269    90.00000    41.03323     4.66269
    36.40000    90.00000    48.96629     4.66267    90.00000    41.03371     4.66267
    36.50000    90.00000    48.96581     4.66265    90.00000    41.03419     4.66265
    36.60000    90.00000    48.96533     4.66263    90.00000    41.03467     4.66263
    36.70000    90.00000    48.96485     4.66261    90.00000    41.03515     4.66261
    36.80000    90.00000    48.96438     4.66259    90.00000    41.03562     4.66259
    36.90000    90.00000    48.96390     4.66257    90.00000    41.03610     4.66257
    37.00000    90.00000    48.96342     4.66255    90.00000    41.03658     4.66255
    37.10000    90.00000    48.96294     4.66254    90.00000    41.03706     4.66254
    37.20000    90.00000    48.96247     4.66252    90.00000    41.03753     4.66252
    37.30000    90.00000    48.96199     4.66250    90.00000    41.03801     4.66250
    37.40000    90.00000    48.96151     4.66248    90.00000    41.03849     4.66248
    37.50000    90.00000    48.96104     4.66246    90.00000    41.03896     4.66246
    37.60000    90.00000    48.96056     4.66244    90.00000    41.03944     4.66244
    37.70000    90.00000    48.96008     4.66242    90.00000    41.03992     4.66242
    37.80000    90.00000    48.95961     4.66240    90.00000    41.04039     4.66240
    37.90000    90.00000    48.95913     4.66238    90.00000    41.04087     4.66238
    38.00000    90.00000    48.95866     4.66236    90.00000    41.04134     4.66236
    38.10000    90.00000    48.95818     4.66234    90.00000    41.04182     4.66234
    38.20000    90.00000    48.95770     4.66232    90.00000    41.04230     4.66232
    38.30000    90.00000    48.95723     4.66230    90.00000    41.04277     4.66230
    38.40000    90.00000    48.95675     4.66228    90.00000    41.04325     4.66228
    38.50000    90.00000    48.95628     4.66226    90.00000    41.04372     4.66226
    38.60000    90.00000    48.95580     4.66224    90.00000    41.04420     4.66224
    38.70000    90.00000    48.95533     4.66222    90.00000    41.04467     4.66222
    38.80000    90.00000    48.95486     4.66220    90.00000    41.04514     4.66220
    38.90000    90.00000    48.95438     4.66218    90.00000    41.04562     4.66218
    39.00000    90.00000    48.95391     4.66216    90.00000    41.04609     4.66216
    39.10000    90.00000    48.95343     4.66214    90.00000    41.04657     4.66214
    39.20000    90.00000    48.95296     4.66212    90.00000    41.04704     4.66212
    39.30000    90.00000    48.95249     4.66210    90.00000    41.04751     4.66210
    39.40000    90.00000    48.95201     4.66208    90.00000    41.04799     4.66208
    39.50000    90.00000    48.95154     4.66206    90.00000    41.04846     4.66206
    39.60000    90.00000    48.95107     4.66204    90.00000    41.04893     4.66204
    39.70000    90.00000    48.95059     4.66202    90.00000    41.04941     4.66202
    39.80000    90.00000    48.95012     4.66200    90.00000    41.04988     4.66200
    39.90000    90.00000    48.94965     4.66198    90.00000    41.05035     4.66198
    40.00000    90.00000    48.94918     4.66196    90.00000    41.05082     4.66196
