 # applied field (T), theta (degree), phi (degree), abs for RE 1-2
     0.00000    90.00000   225.41977     4.25226    90.00000   225.41977     4.25226
     0.10000    90.14463   225.41977     4.25226    90.14463   225.41977     4.25226
     0.20000    90.28927   224.58023     4.25225    90.28927   224.58023     4.25225
     0.30000    90.40475   225.41977     4.25224    90.40475   225.41977     4.25224
     0.40000    90.54938   225.41977     4.25222    90.54938   225.41977     4.25222
     0.50000    90.69402   224.58023     4.25220    90.69402   224.58023     4.25220
     0.60000    90.83865   225.41977     4.25217    90.83865   225.41977     4.25217
     0.70000    90.95413   225.41977     4.25214    90.95413   225.41977     4.25214
     0.80000    91.09877   224.58023     4.25209    91.09877   224.58023     4.25209
     0.90000    91.24340   224.58022     4.25205    91.24340   224.58022     4.25205
     1.00000    91.38804   225.41978     4.25200    91.38804   225.41978     4.25200
     1.10000    91.53267   224.58022     4.25194    91.53267   224.58022     4.25194
     1.20000    91.64815   224.58022     4.25189    91.64815   224.58022     4.25189
     1.30000    91.79279   224.58022     4.25182    91.79279   224.58022     4.25182
     1.40000    91.93742   225.41978     4.25174    91.93742   225.41978     4.25174
     1.50000    92.08205   224.58021     4.25166    92.08205   224.58021     4.25166
     1.60000    92.19754   224.58021     4.25159    92.19754   224.58021     4.25159
     1.70000    92.34217   224.58021     4.25150    92.34217   224.58021     4.25150
     1.80000    92.48680   224.58021     4.25140    92.48680   224.58021     4.25140
     1.90000    92.60229   225.41980     4.25132    92.60229   225.41980     4.25132
     2.00000    92.74692   225.41980     4.25121    92.74692   225.41980     4.25121
     2.10000    92.89155   225.41980     4.25110    92.89155   225.41980     4.25110
     2.20000    93.03619   224.58020     4.25098    93.03619   224.58020     4.25098
     2.30000    93.15167   225.41981     4.25088    93.15167   225.41981     4.25088
     2.40000    93.29631   224.58019     4.25075    93.29631   224.58019     4.25075
     2.50000    93.44093   225.00000     4.25062    93.44093   225.00000     4.25062
     2.60000    93.55642   225.00000     4.25050    93.55642   225.00000     4.25050
     2.70000    93.70105   225.00000     4.25036    93.70105   225.00000     4.25036
     2.80000    93.84569   225.00000     4.25020    93.84569   225.00000     4.25020
     2.90000    93.96117   225.00000     4.25008    93.96117   225.00000     4.25008
     3.00000    94.10581   225.00000     4.24991    94.10581   225.00000     4.24991
     3.10000    94.25044   225.00000     4.24974    94.25044   225.00000     4.24974
     3.20000    94.36593   225.00000     4.24960    94.36593   225.00000     4.24960
     3.30000    94.51056   225.00000     4.24942    94.51056   225.00000     4.24942
     3.40000    94.62605   225.00000     4.24927    94.62605   225.00000     4.24927
     3.50000    94.77069   225.00000     4.24908    94.77069   225.00000     4.24908
     3.60000    94.91532   225.00000     4.24889    94.91532   225.00000     4.24889
     3.70000    95.03081   225.00000     4.24872    95.03081   225.00000     4.24872
     3.80000    95.17545   225.00000     4.24852    95.17545   225.00000     4.24852
     3.90000    95.29095   224.57197     4.24834    95.29095   224.57197     4.24834
     4.00000    95.43559   225.42803     4.24812    95.43559   225.42803     4.24812
     4.10000    95.55108   224.57196     4.24794    95.55108   224.57196     4.24794
     4.20000    95.69572   225.42805     4.24772    95.69572   225.42805     4.24772
     4.30000    95.81121   224.57195     4.24753    95.81121   224.57195     4.24753
     4.40000    95.95585   224.57194     4.24729    95.95585   224.57194     4.24729
     4.50000    96.07135   225.42806     4.24709    96.07135   225.42806     4.24709
     4.60000    96.21599   224.57193     4.24684    96.21599   224.57193     4.24684
     4.70000    96.33149   224.57192     4.24663    96.33149   224.57192     4.24663
     4.80000    96.47614   224.57192     4.24637    96.47614   224.57192     4.24637
     4.90000    96.62077   225.00000     4.24610    96.62077   225.00000     4.24610
     5.00000    96.70712   225.00000     4.24593    96.70712   225.00000     4.24593
     5.10000    96.85177   225.00000     4.24565    96.85177   225.00000     4.24565
     5.20000    96.96728   225.00000     4.24542    96.96728   225.00000     4.24542
     5.30000    97.11193   225.00000     4.24513    97.11193   225.00000     4.24513
     5.40000    97.22744   225.00000     4.24490    97.22744   225.00000     4.24490
     5.50000    97.34294   225.00000     4.24465    97.34294   225.00000     4.24465
     5.60000    97.48760   225.00000     4.24435    97.48760   225.00000     4.24435
     5.70000    97.60311   225.00000     4.24409    97.60311   225.00000     4.24409
     5.80000    97.71863   225.00000     4.24384    97.71863   225.00000     4.24384
     5.90000    97.86331   225.43664     4.24351    97.86331   225.43664     4.24351
     6.00000    97.97882   224.56335     4.24325    97.97882   224.56335     4.24325
     6.10000    98.09434   224.56335     4.24298    98.09434   224.56335     4.24298
     6.20000    98.20986   224.56334     4.24271    98.20986   224.56334     4.24271
     6.30000    98.35454   225.43667     4.24236    98.35454   225.43667     4.24236
     6.40000    98.47006   224.56332     4.24208    98.47006   224.56332     4.24208
     6.50000    98.58559   225.43669     4.24179    98.58559   225.43669     4.24179
     6.60000    98.73026   225.00000     4.24143    98.73026   225.00000     4.24143
     6.70000    98.81664   225.00000     4.24121    98.81664   225.00000     4.24121
     6.80000    98.93218   225.00000     4.24091    98.93218   225.00000     4.24091
     6.90000    99.07687   225.00000     4.24053    99.07687   225.00000     4.24053
     7.00000    99.19241   225.00000     4.24022    99.19241   225.00000     4.24022
     7.10000    99.30796   225.00000     4.23991    99.30796   225.00000     4.23991
     7.20000    99.42351   225.00000     4.23959    99.42351   225.00000     4.23959
     7.30000    99.53906   225.00000     4.23927    99.53906   225.00000     4.23927
     7.40000    99.65463   224.55441     4.23894    99.65463   224.55441     4.23894
     7.50000    99.77019   225.44560     4.23861    99.77019   225.44560     4.23861
     7.60000    99.88575   224.55440     4.23827    99.88575   224.55440     4.23827
     7.70000   100.00132   225.44561     4.23793   100.00132   225.44561     4.23793
     7.80000   100.11689   225.44562     4.23759   100.11689   225.44562     4.23759
     7.90000   100.23247   224.55437     4.23724   100.23247   224.55437     4.23724
     8.00000   100.34805   224.55436     4.23689   100.34805   224.55436     4.23689
     8.10000   100.46361   225.00000     4.23653   100.46361   225.00000     4.23653
     8.20000   100.57920   225.00000     4.23617   100.57920   225.00000     4.23617
     8.30000   100.69479   225.00000     4.23580   100.69479   225.00000     4.23580
     8.40000   100.78122   225.00000     4.23552   100.78122   225.00000     4.23552
     8.50000   100.89683   225.00000     4.23515   100.89683   225.00000     4.23515
     8.60000   101.01243   225.00000     4.23477   101.01243   225.00000     4.23477
     8.70000   101.12805   225.00000     4.23438   101.12805   225.00000     4.23438
     8.80000   101.24369   224.54509     4.23399   101.24369   224.54509     4.23399
     8.90000   101.35931   224.54508     4.23360   101.35931   224.54508     4.23360
     9.00000   101.44577   225.45493     4.23330   101.44577   225.45493     4.23330
     9.10000   101.56140   224.54506     4.23290   101.56140   224.54506     4.23290
     9.20000   101.67704   224.54505     4.23249   101.67704   224.54505     4.23249
     9.30000   101.79269   225.45496     4.23208   101.79269   225.45496     4.23208
     9.40000   101.87915   225.00000     4.23177   101.87915   225.00000     4.23177
     9.50000   101.99480   225.00000     4.23135   101.99480   225.00000     4.23135
     9.60000   102.11047   225.00000     4.23093   102.11047   225.00000     4.23093
     9.70000   102.19696   225.00000     4.23061   102.19696   225.00000     4.23061
     9.80000   102.31264   225.00000     4.23017   102.31264   225.00000     4.23017
     9.90000   102.42833   225.00000     4.22974   102.42833   225.00000     4.22974
    10.00000   102.51484   225.00000     4.22940   102.51484   225.00000     4.22940
    10.10000   102.63057   225.46463     4.22896   102.63057   225.46463     4.22896
    10.20000   102.74628   224.53536     4.22851   102.74628   224.53536     4.22851
    10.30000   102.83280   225.46465     4.22816   102.83280   225.46465     4.22816
    10.40000   102.94853   224.53534     4.22770   102.94853   224.53534     4.22770
    10.50000   103.03507   224.53533     4.22735   103.03507   224.53533     4.22735
    10.60000   103.15081   224.53531     4.22688   103.15081   224.53531     4.22688
    10.70000   103.23734   225.00000     4.22653   103.23734   225.00000     4.22653
    10.80000   103.35310   225.00000     4.22605   103.35310   225.00000     4.22605
    10.90000   103.43966   225.00000     4.22569   103.43966   225.00000     4.22569
    11.00000   103.55544   225.00000     4.22520   103.55544   225.00000     4.22520
    11.10000   103.64202   225.00000     4.22483   103.64202   225.00000     4.22483
    11.20000   103.75781   225.00000     4.22434   103.75781   225.00000     4.22434
    11.30000   103.84444   224.52524     4.22396   103.84444   224.52524     4.22396
    11.40000   103.93104   225.47477     4.22358   103.93104   225.47477     4.22358
    11.50000   104.04686   224.52522     4.22307   104.04686   224.52522     4.22307
    11.60000   104.13348   225.47480     4.22269   104.13348   225.47480     4.22269
    11.70000   104.22011   224.52519     4.22230   104.22011   224.52519     4.22230
    11.80000   104.33596   225.47482     4.22178   104.33596   225.47482     4.22178
    11.90000   104.42257   225.00000     4.22138   104.42257   225.00000     4.22138
    12.00000   104.50923   225.00000     4.22098   104.50923   225.00000     4.22098
    12.10000   104.62511   225.00000     4.22045   104.62511   225.00000     4.22045
    12.20000   104.71178   225.00000     4.22004   104.71178   225.00000     4.22004
    12.30000   104.79846   225.00000     4.21963   104.79846   225.00000     4.21963
    12.40000   104.88514   225.00000     4.21922   104.88514   225.00000     4.21922
    12.50000   105.00110   224.51466     4.21866   105.00110   224.51466     4.21866
    12.60000   105.08781   224.51465     4.21824   105.08781   224.51465     4.21824
    12.70000   105.17452   224.51463     4.21782   105.17452   224.51463     4.21782
    12.80000   105.26124   225.48538     4.21739   105.26124   225.48538     4.21739
    12.90000   105.34798   224.51461     4.21696   105.34798   224.51461     4.21696
    13.00000   105.43472   225.48540     4.21653   105.43472   225.48540     4.21653
    13.10000   105.55069   225.00000     4.21595   105.55069   225.00000     4.21595
    13.20000   105.63746   225.00000     4.21551   105.63746   225.00000     4.21551
    13.30000   105.72423   225.00000     4.21507   105.72423   225.00000     4.21507
    13.40000   105.81101   225.00000     4.21462   105.81101   225.00000     4.21462
    13.50000   105.89781   225.00000     4.21417   105.89781   225.00000     4.21417
    13.60000   105.98461   225.00000     4.21372   105.98461   225.00000     4.21372
    13.70000   106.07146   225.49640     4.21326   106.07146   225.49640     4.21326
    13.80000   106.15828   224.50359     4.21280   106.15828   224.50359     4.21280
    13.90000   106.24512   224.50357     4.21234   106.24512   224.50357     4.21234
    14.00000   106.33197   224.50356     4.21187   106.33197   224.50356     4.21187
    14.10000   106.41883   225.49645     4.21140   106.41883   225.49645     4.21140
    14.20000   106.50570   225.49647     4.21093   106.50570   225.49647     4.21093
    14.30000   106.59255   225.00000     4.21045   106.59255   225.00000     4.21045
    14.40000   106.67945   225.00000     4.20997   106.67945   225.00000     4.20997
    14.50000   106.76635   225.00000     4.20949   106.76635   225.00000     4.20949
    14.60000   106.85327   225.00000     4.20900   106.85327   225.00000     4.20900
    14.70000   106.94020   225.00000     4.20851   106.94020   225.00000     4.20851
    14.80000   106.99784   225.00000     4.20817   106.99784   225.00000     4.20817
    14.90000   107.08483   224.49203     4.20768   107.08483   224.49203     4.20768
    15.00000   107.17180   224.49202     4.20718   107.17180   224.49202     4.20718
    15.10000   107.25878   225.50800     4.20667   107.25878   225.50800     4.20667
    15.20000   107.34577   224.49199     4.20617   107.34577   224.49199     4.20617
    15.30000   107.43278   225.50803     4.20566   107.43278   225.50803     4.20566
    15.40000   107.49047   225.50804     4.20531   107.49047   225.50804     4.20531
    15.50000   107.57747   225.00000     4.20479   107.57747   225.00000     4.20479
    15.60000   107.66452   225.00000     4.20427   107.66452   225.00000     4.20427
    15.70000   107.75158   225.00000     4.20375   107.75158   225.00000     4.20375
    15.80000   107.83866   225.00000     4.20322   107.83866   225.00000     4.20322
    15.90000   107.89640   225.00000     4.20286   107.89640   225.00000     4.20286
    16.00000   107.98350   225.00000     4.20233   107.98350   225.00000     4.20233
    16.10000   108.07066   224.47991     4.20179   108.07066   224.47991     4.20179
    16.20000   108.12843   225.52010     4.20142   108.12843   225.52010     4.20142
    16.30000   108.21557   224.47988     4.20088   108.21557   224.47988     4.20088
    16.40000   108.30274   224.47987     4.20033   108.30274   224.47987     4.20033
    16.50000   108.36054   224.47986     4.19996   108.36054   224.47986     4.19996
    16.60000   108.44773   225.52016     4.19941   108.44773   225.52016     4.19941
    16.70000   108.53490   225.00000     4.19885   108.53490   225.00000     4.19885
    16.80000   108.59273   225.00000     4.19847   108.59273   225.00000     4.19847
    16.90000   108.67997   225.00000     4.19791   108.67997   225.00000     4.19791
    17.00000   108.73783   225.00000     4.19753   108.73783   225.00000     4.19753
    17.10000   108.82510   225.00000     4.19696   108.82510   225.00000     4.19696
    17.20000   108.91238   225.00000     4.19638   108.91238   225.00000     4.19638
    17.30000   108.94085   225.00000     4.19618   108.94085   225.00000     4.19618
    17.40000   109.05763   225.53280     4.19541   109.05763   225.53280     4.19541
    17.50000   109.11554   225.53281     4.19501   109.11554   225.53281     4.19501
    17.60000   109.20290   224.46717     4.19443   109.20290   224.46717     4.19443
    17.70000   109.26083   224.46716     4.19403   109.26083   224.46716     4.19403
    17.80000   109.34822   225.53286     4.19343   109.34822   225.53286     4.19343
    17.90000   109.40613   225.00000     4.19303   109.40613   225.00000     4.19303
    18.00000   109.49356   225.00000     4.19243   109.49356   225.00000     4.19243
    18.10000   109.55154   225.00000     4.19202   109.55154   225.00000     4.19202
    18.20000   109.63900   225.00000     4.19141   109.63900   225.00000     4.19141
    18.30000   109.69700   225.00000     4.19100   109.69700   225.00000     4.19100
    18.40000   109.75502   225.00000     4.19058   109.75502   225.00000     4.19058
    18.50000   109.84253   225.00000     4.18997   109.84253   225.00000     4.18997
    18.60000   109.90061   225.54613     4.18954   109.90061   225.54613     4.18954
    18.70000   109.98816   224.45386     4.18892   109.98816   224.45386     4.18892
    18.80000   110.04623   225.54616     4.18849   110.04623   225.54616     4.18849
    18.90000   110.10431   224.45383     4.18807   110.10431   224.45383     4.18807
    19.00000   110.19192   224.45381     4.18743   110.19192   224.45381     4.18743
    19.10000   110.25002   225.54620     4.18700   110.25002   225.54620     4.18700
    19.20000   110.30810   225.00000     4.18657   110.30810   225.00000     4.18657
    19.30000   110.39576   225.00000     4.18593   110.39576   225.00000     4.18593
    19.40000   110.45391   225.00000     4.18549   110.45391   225.00000     4.18549
    19.50000   110.51207   225.00000     4.18505   110.51207   225.00000     4.18505
    19.60000   110.59979   225.00000     4.18439   110.59979   225.00000     4.18439
    19.70000   110.65798   225.00000     4.18395   110.65798   225.00000     4.18395
    19.80000   110.68662   225.00000     4.18371   110.68662   225.00000     4.18371
    19.90000   110.77444   225.56014     4.18305   110.77444   225.56014     4.18305
    20.00000   110.86224   225.56016     4.18238   110.86224   225.56016     4.18238
    20.10000   110.92049   224.43983     4.18192   110.92049   224.43983     4.18192
    20.20000   110.97874   224.43982     4.18147   110.97874   224.43982     4.18147
    20.30000   111.03702   224.43980     4.18101   111.03702   224.43980     4.18101
    20.40000   111.12490   225.56022     4.18033   111.12490   225.56022     4.18033
    20.50000   111.18316   225.00000     4.17987   111.18316   225.00000     4.17987
    20.60000   111.24147   225.00000     4.17940   111.24147   225.00000     4.17940
    20.70000   111.29981   225.00000     4.17893   111.29981   225.00000     4.17893
    20.80000   111.35815   225.00000     4.17846   111.35815   225.00000     4.17846
    20.90000   111.41651   225.00000     4.17799   111.41651   225.00000     4.17799
    21.00000   111.50452   225.00000     4.17729   111.50452   225.00000     4.17729
    21.10000   111.53327   225.00000     4.17704   111.53327   225.00000     4.17704
    21.20000   111.62137   225.57488     4.17633   111.62137   225.57488     4.17633
    21.30000   111.67980   224.42510     4.17584   111.67980   224.42510     4.17584
    21.40000   111.73823   224.42509     4.17536   111.73823   224.42509     4.17536
    21.50000   111.79668   224.42508     4.17487   111.79668   224.42508     4.17487
    21.60000   111.85515   224.42506     4.17439   111.85515   224.42506     4.17439
    21.70000   111.91363   224.42505     4.17389   111.91363   224.42505     4.17389
    21.80000   111.97208   225.00000     4.17340   111.97208   225.00000     4.17340
    21.90000   112.03060   225.00000     4.17291   112.03060   225.00000     4.17291
    22.00000   112.11883   225.00000     4.17217   112.11883   225.00000     4.17217
    22.10000   112.17739   225.00000     4.17167   112.17739   225.00000     4.17167
    22.20000   112.23595   225.00000     4.17117   112.23595   225.00000     4.17117
    22.30000   112.29454   225.00000     4.17066   112.29454   225.00000     4.17066
    22.40000   112.35314   225.00000     4.17016   112.35314   225.00000     4.17016
    22.50000   112.41181   225.59041     4.16964   112.41181   225.59041     4.16964
    22.60000   112.47044   225.59042     4.16913   112.47044   225.59042     4.16913
    22.70000   112.52909   224.40956     4.16862   112.52909   224.40956     4.16862
    22.80000   112.58776   224.40955     4.16810   112.58776   224.40955     4.16810
    22.90000   112.64644   224.40953     4.16758   112.64644   224.40953     4.16758
    23.00000   112.70514   224.40952     4.16706   112.70514   224.40952     4.16706
    23.10000   112.76381   225.00000     4.16654   112.76381   225.00000     4.16654
    23.20000   112.79275   225.00000     4.16626   112.79275   225.00000     4.16626
    23.30000   112.85149   225.00000     4.16574   112.85149   225.00000     4.16574
    23.40000   112.91026   225.00000     4.16521   112.91026   225.00000     4.16521
    23.50000   112.96904   225.00000     4.16467   112.96904   225.00000     4.16467
    23.60000   113.02784   225.00000     4.16414   113.02784   225.00000     4.16414
    23.70000   113.08666   225.00000     4.16360   113.08666   225.00000     4.16360
    23.80000   113.14550   225.00000     4.16306   113.14550   225.00000     4.16306
    23.90000   113.20441   224.39321     4.16252   113.20441   224.39321     4.16252
    24.00000   113.26329   224.39319     4.16197   113.26329   224.39319     4.16197
    24.10000   113.32218   225.60682     4.16142   113.32218   225.60682     4.16142
    24.20000   113.35121   224.39317     4.16114   113.35121   224.39317     4.16114
    24.30000   113.41014   225.60685     4.16059   113.41014   225.60685     4.16059
    24.40000   113.46909   225.60686     4.16003   113.46909   225.60686     4.16003
    24.50000   113.55791   225.00000     4.15921   113.55791   225.00000     4.15921
    24.60000   113.58698   225.00000     4.15892   113.58698   225.00000     4.15892
    24.70000   113.64599   225.00000     4.15836   113.64599   225.00000     4.15836
    24.80000   113.67508   225.00000     4.15807   113.67508   225.00000     4.15807
    24.90000   113.73412   225.00000     4.15750   113.73412   225.00000     4.15750
    25.00000   113.79317   225.00000     4.15693   113.79317   225.00000     4.15693
    25.10000   113.85225   225.00000     4.15636   113.85225   225.00000     4.15636
    25.20000   113.91136   225.00000     4.15579   113.91136   225.00000     4.15579
    25.30000   113.94055   225.62409     4.15549   113.94055   225.62409     4.15549
    25.40000   113.99969   224.37589     4.15491   113.99969   224.37589     4.15491
    25.50000   114.05885   224.37588     4.15433   114.05885   224.37588     4.15433
    25.60000   114.11803   224.37586     4.15375   114.11803   224.37586     4.15375
    25.70000   114.14721   224.37585     4.15345   114.14721   224.37585     4.15345
    25.80000   114.20642   225.62417     4.15286   114.20642   225.62417     4.15286
    25.90000   114.26566   224.37582     4.15227   114.26566   224.37582     4.15227
    26.00000   114.32486   225.00000     4.15168   114.32486   225.00000     4.15168
    26.10000   114.35408   225.00000     4.15137   114.35408   225.00000     4.15137
    26.20000   114.41338   225.00000     4.15078   114.41338   225.00000     4.15078
    26.30000   114.47270   225.00000     4.15018   114.47270   225.00000     4.15018
    26.40000   114.50195   225.00000     4.14987   114.50195   225.00000     4.14987
    26.50000   114.56131   225.00000     4.14926   114.56131   225.00000     4.14926
    26.60000   114.62069   225.00000     4.14866   114.62069   225.00000     4.14866
    26.70000   114.64997   225.00000     4.14834   114.64997   225.00000     4.14834
    26.80000   114.67927   225.00000     4.14802   114.67927   225.00000     4.14802
    26.90000   114.76889   225.64243     4.14712   114.76889   225.64243     4.14712
    27.00000   114.79822   224.35756     4.14680   114.79822   224.35756     4.14680
    27.10000   114.85770   225.64246     4.14618   114.85770   225.64246     4.14618
    27.20000   114.91720   224.35753     4.14556   114.91720   224.35753     4.14556
    27.30000   114.94656   225.64248     4.14523   114.94656   225.64248     4.14523
    27.40000   115.00610   225.64250     4.14461   115.00610   225.64250     4.14461
    27.50000   115.06561   225.00000     4.14399   115.06561   225.00000     4.14399
    27.60000   115.09500   225.00000     4.14366   115.09500   225.00000     4.14366
    27.70000   115.15462   225.00000     4.14303   115.15462   225.00000     4.14303
    27.80000   115.18403   225.00000     4.14270   115.18403   225.00000     4.14270
    27.90000   115.24368   225.00000     4.14206   115.24368   225.00000     4.14206
    28.00000   115.30336   225.00000     4.14142   115.30336   225.00000     4.14142
    28.10000   115.33281   225.00000     4.14109   115.33281   225.00000     4.14109
    28.20000   115.39253   225.00000     4.14045   115.39253   225.00000     4.14045
    28.30000   115.42200   225.00000     4.14011   115.42200   225.00000     4.14011
    28.40000   115.48183   225.66183     4.13946   115.48183   225.66183     4.13946
    28.50000   115.51133   224.33816     4.13912   115.51133   224.33816     4.13912
    28.60000   115.57114   224.33814     4.13847   115.57114   224.33814     4.13847
    28.70000   115.63098   225.66188     4.13781   115.63098   225.66188     4.13781
    28.80000   115.66051   225.66189     4.13747   115.66051   225.66189     4.13747
    28.90000   115.72039   224.33809     4.13681   115.72039   224.33809     4.13681
    29.00000   115.74995   225.66192     4.13646   115.74995   225.66192     4.13646
    29.10000   115.80981   225.00000     4.13580   115.80981   225.00000     4.13580
    29.20000   115.83939   225.00000     4.13545   115.83939   225.00000     4.13545
    29.30000   115.89937   225.00000     4.13478   115.89937   225.00000     4.13478
    29.40000   115.92897   225.00000     4.13443   115.92897   225.00000     4.13443
    29.50000   115.98899   225.00000     4.13376   115.98899   225.00000     4.13376
    29.60000   116.01862   225.00000     4.13340   116.01862   225.00000     4.13340
    29.70000   116.07869   225.00000     4.13272   116.07869   225.00000     4.13272
    29.80000   116.10835   225.00000     4.13237   116.10835   225.00000     4.13237
    29.90000   116.13801   225.00000     4.13201   116.13801   225.00000     4.13201
    30.00000   116.19821   224.31756     4.13132   116.19821   224.31756     4.13132
    30.10000   116.22790   224.31755     4.13096   116.22790   224.31755     4.13096
    30.20000   116.28808   224.31753     4.13027   116.28808   224.31753     4.13027
    30.30000   116.31780   224.31752     4.12991   116.31780   224.31752     4.12991
    30.40000   116.37803   225.68250     4.12922   116.37803   225.68250     4.12922
    30.50000   116.40778   224.31749     4.12885   116.40778   224.31749     4.12885
    30.60000   116.46806   224.31747     4.12815   116.46806   224.31747     4.12815
    30.70000   116.52831   225.00000     4.12745   116.52831   225.00000     4.12745
    30.80000   116.55810   225.00000     4.12708   116.55810   225.00000     4.12708
    30.90000   116.58789   225.00000     4.12671   116.58789   225.00000     4.12671
    31.00000   116.61770   225.00000     4.12634   116.61770   225.00000     4.12634
    31.10000   116.67811   225.00000     4.12563   116.67811   225.00000     4.12563
    31.20000   116.70794   225.00000     4.12526   116.70794   225.00000     4.12526
    31.30000   116.76840   225.00000     4.12454   116.76840   225.00000     4.12454
    31.40000   116.79826   225.00000     4.12416   116.79826   225.00000     4.12416
    31.50000   116.82814   225.00000     4.12379   116.82814   225.00000     4.12379
    31.60000   116.85802   225.00000     4.12341   116.85802   225.00000     4.12341
    31.70000   116.91865   225.70437     4.12268   116.91865   225.70437     4.12268
    31.80000   116.94856   225.70438     4.12230   116.94856   225.70438     4.12230
    31.90000   117.00917   225.70440     4.12156   117.00917   225.70440     4.12156
    32.00000   117.03911   225.70441     4.12118   117.03911   225.70441     4.12118
    32.10000   117.09977   225.70443     4.12044   117.09977   225.70443     4.12044
    32.20000   117.12975   224.29556     4.12006   117.12975   224.29556     4.12006
    32.30000   117.15973   224.29554     4.11967   117.15973   224.29554     4.11967
    32.40000   117.22047   225.70448     4.11893   117.22047   225.70448     4.11893
    32.50000   117.25041   225.00000     4.11854   117.25041   225.00000     4.11854
    32.60000   117.28044   225.00000     4.11815   117.28044   225.00000     4.11815
    32.70000   117.34126   225.00000     4.11740   117.34126   225.00000     4.11740
    32.80000   117.37131   225.00000     4.11700   117.37131   225.00000     4.11700
    32.90000   117.40138   225.00000     4.11661   117.40138   225.00000     4.11661
    33.00000   117.43146   225.00000     4.11621   117.43146   225.00000     4.11621
    33.10000   117.49238   225.00000     4.11545   117.49238   225.00000     4.11545
    33.20000   117.52249   225.00000     4.11505   117.52249   225.00000     4.11505
    33.30000   117.55261   225.00000     4.11465   117.55261   225.00000     4.11465
    33.40000   117.58274   225.00000     4.11425   117.58274   225.00000     4.11425
    33.50000   117.64385   225.72774     4.11348   117.64385   225.72774     4.11348
    33.60000   117.67402   224.27225     4.11307   117.67402   224.27225     4.11307
    33.70000   117.70419   224.27224     4.11267   117.70419   224.27224     4.11267
    33.80000   117.76531   225.72779     4.11189   117.76531   225.72779     4.11189
    33.90000   117.79552   225.72780     4.11148   117.79552   225.72780     4.11148
    34.00000   117.82574   224.27219     4.11107   117.82574   224.27219     4.11107
    34.10000   117.85597   224.27218     4.11066   117.85597   224.27218     4.11066
    34.20000   117.91720   225.72785     4.10987   117.91720   225.72785     4.10987
    34.30000   117.97840   225.00000     4.10908   117.97840   225.00000     4.10908
    34.40000   117.97767   225.00000     4.10905   117.97767   225.00000     4.10905
    34.50000   118.00796   225.00000     4.10864   118.00796   225.00000     4.10864
    34.60000   118.06931   225.00000     4.10784   118.06931   225.00000     4.10784
    34.70000   118.09964   225.00000     4.10742   118.09964   225.00000     4.10742
    34.80000   118.12998   225.00000     4.10700   118.12998   225.00000     4.10700
    34.90000   118.16033   225.00000     4.10658   118.16033   225.00000     4.10658
    35.00000   118.22179   225.00000     4.10577   118.22179   225.00000     4.10577
    35.10000   118.25218   225.00000     4.10535   118.25218   225.00000     4.10535
    35.20000   118.28258   225.00000     4.10492   118.28258   225.00000     4.10492
    35.30000   118.31307   225.75268     4.10449   118.31307   225.75268     4.10449
    35.40000   118.34350   225.75270     4.10407   118.34350   225.75270     4.10407
    35.50000   118.40511   224.24728     4.10324   118.40511   224.24728     4.10324
    35.60000   118.43557   224.24727     4.10281   118.43557   224.24727     4.10281
    35.70000   118.46605   225.75275     4.10238   118.46605   225.75275     4.10238
    35.80000   118.49654   224.24724     4.10195   118.49654   224.24724     4.10195
    35.90000   118.52704   225.75277     4.10152   118.52704   225.75277     4.10152
    36.00000   118.55756   224.24721     4.10109   118.55756   224.24721     4.10109
    36.10000   118.61934   225.75281     4.10025   118.61934   225.75281     4.10025
    36.20000   118.64990   224.24718     4.09981   118.64990   224.24718     4.09981
    36.30000   118.68039   225.00000     4.09938   118.68039   225.00000     4.09938
    36.40000   118.71098   225.00000     4.09894   118.71098   225.00000     4.09894
    36.50000   118.74157   225.00000     4.09849   118.74157   225.00000     4.09849
    36.60000   118.77219   225.00000     4.09805   118.77219   225.00000     4.09805
    36.70000   118.83415   225.00000     4.09720   118.83415   225.00000     4.09720
    36.80000   118.86480   225.00000     4.09675   118.86480   225.00000     4.09675
    36.90000   118.89547   225.00000     4.09631   118.89547   225.00000     4.09631
    37.00000   118.92615   225.00000     4.09586   118.92615   225.00000     4.09586
    37.10000   118.95685   225.00000     4.09541   118.95685   225.00000     4.09541
    37.20000   118.98756   225.00000     4.09496   118.98756   225.00000     4.09496
    37.30000   119.01837   224.22060     4.09450   119.01837   224.22060     4.09450
    37.40000   119.04911   224.22058     4.09405   119.04911   224.22058     4.09405
    37.50000   119.11132   225.77944     4.09318   119.11132   225.77944     4.09318
    37.60000   119.14210   224.22054     4.09272   119.14210   224.22054     4.09272
    37.70000   119.17290   224.22053     4.09226   119.17290   224.22053     4.09226
    37.80000   119.20371   224.22052     4.09180   119.20371   224.22052     4.09180
    37.90000   119.23454   224.22050     4.09134   119.23454   224.22050     4.09134
    38.00000   119.26538   225.77951     4.09088   119.26538   225.77951     4.09088
    38.10000   119.29624   225.77953     4.09042   119.29624   225.77953     4.09042
    38.20000   119.32711   225.77954     4.08996   119.32711   225.77954     4.08996
    38.30000   119.38950   225.00000     4.08907   119.38950   225.00000     4.08907
    38.40000   119.38882   225.00000     4.08903   119.38882   225.00000     4.08903
    38.50000   119.41974   225.00000     4.08856   119.41974   225.00000     4.08856
    38.60000   119.48230   225.00000     4.08766   119.48230   225.00000     4.08766
    38.70000   119.51327   225.00000     4.08719   119.51327   225.00000     4.08719
    38.80000   119.54425   225.00000     4.08672   119.54425   225.00000     4.08672
    38.90000   119.57525   225.00000     4.08624   119.57525   225.00000     4.08624
    39.00000   119.60626   225.00000     4.08577   119.60626   225.00000     4.08577
    39.10000   119.63729   225.00000     4.08529   119.63729   225.00000     4.08529
    39.20000   119.66834   225.00000     4.08482   119.66834   225.00000     4.08482
    39.30000   119.69940   225.00000     4.08434   119.69940   225.00000     4.08434
    39.40000   119.69873   225.00000     4.08430   119.69873   225.00000     4.08430
    39.50000   119.76166   225.80809     4.08337   119.76166   225.80809     4.08337
    39.60000   119.79278   224.19190     4.08289   119.79278   224.19190     4.08289
    39.70000   119.82391   224.19188     4.08240   119.82391   224.19188     4.08240
    39.80000   119.85505   224.19187     4.08192   119.85505   224.19187     4.08192
    39.90000   119.88622   224.19185     4.08143   119.88622   224.19185     4.08143
    40.00000   119.91740   224.19184     4.08095   119.91740   224.19184     4.08095
