 # applied field (T), theta (degree), phi (degree), abs for RE 1-2
     0.00000   179.84196   135.00000     3.56429   179.84196    45.00000     3.56429
     0.10000   178.68107   174.00915     3.56423   178.90945   175.40342     3.56694
     0.20000   177.48273   176.26999     3.56406   177.71260   178.41860     3.56947
     0.30000   176.28260   177.06912     3.56379   176.51291   179.36073     3.57186
     0.40000   175.08154   177.47589     3.56341   175.31174   179.82029     3.57409
     0.50000   173.87962   177.72113     3.56292   174.10922   180.09246     3.57617
     0.60000   172.67677   177.88428     3.56234   172.90531   180.27262     3.57806
     0.70000   171.41809   178.00452     3.56162   171.64507   180.40582     3.57984
     0.80000   170.21297   178.08933     3.56083   170.43805   180.50084     3.58133
     0.90000   168.95166   178.15709     3.55992   169.17437   180.57803     3.58266
     1.00000   167.68880   178.20992     3.55891   167.90880   180.63964     3.58374
     1.10000   166.42426   178.25198     3.55780   166.64126   180.69015     3.58457
     1.20000   165.10279   178.28736     3.55656   165.31642   180.73413     3.58514
     1.30000   163.77923   178.31614     3.55523   163.98929   180.77143     3.58540
     1.40000   162.45346   178.33982     3.55382   162.65981   180.80359     3.58535
     1.50000   161.06995   178.36025     3.55227   161.27235   180.83280     3.58495
     1.60000   159.62831   178.37787     3.55057   159.82653   180.85948     3.58414
     1.70000   158.18372   178.39253     3.54881   158.37776   180.88314     3.58294
     1.80000   156.73610   178.40480     3.54698   156.92597   180.90434     3.58132
     1.90000   155.17362   178.41588     3.54495   155.35901   180.92486     3.57912
     2.00000   153.60747   178.42517     3.54286   153.78838   180.94342     3.57644
     2.10000   151.98146   178.43326     3.54065   152.15768   180.96087     3.57316
     2.20000   150.29515   178.44032     3.53832   150.46636   180.97734     3.56924
     2.30000   148.49166   178.44671     3.53581   148.65720   180.99338     3.56449
     2.40000   146.68332   178.45214     3.53328   146.84268   181.00810     3.55918
     2.50000   144.69991   178.45729     3.53052   144.85163   181.02293     3.55279
     2.60000   142.59702   178.46205     3.52760   142.73930   181.03742     3.54545
     2.70000   140.43093   178.46646     3.52463   140.56162   181.05130     3.53739
     2.80000   138.02955   178.47100     3.52141   138.14466   181.06577     3.52802
     2.90000   135.39112   178.47582     3.51797   135.48522   181.08095     3.51744
     3.00000   132.51394   178.48116     3.51435   132.57998   181.09712     3.50589
     3.10000   129.28079   178.48753     3.51048   129.30864   181.11538     3.49338
     3.20000   125.51505   178.49580     3.50625   125.49012   181.13743     3.48008
     3.30000   120.97965   178.50735     3.50157   120.88209   181.16570     3.46687
     3.40000   115.02483   178.52569     3.49611   114.82592   181.20558     3.45560
     3.50000   105.87225   178.56155     3.48917   105.53526   181.26861     3.45320
     3.60000    90.21677   178.64307     3.48151    89.78323   181.35693     3.48151
     3.70000    90.21678   178.64301     3.48150    89.78322   181.35699     3.48150
     3.80000    90.21679   178.64296     3.48149    89.78321   181.35704     3.48149
     3.90000    90.21681   178.64290     3.48149    89.78319   181.35710     3.48149
     4.00000    90.21682   178.64284     3.48148    89.78318   181.35716     3.48148
     4.10000    90.21683   178.64278     3.48147    89.78317   181.35722     3.48147
     4.20000    90.21685   178.64273     3.48146    89.78315   181.35727     3.48146
     4.30000    90.21686   178.64267     3.48145    89.78314   181.35733     3.48145
     4.40000    90.21687   178.64261     3.48144    89.78313   181.35739     3.48144
     4.50000    90.21689   178.64256     3.48143    89.78311   181.35744     3.48143
     4.60000    90.21690   178.64250     3.48142    89.78310   181.35750     3.48142
     4.70000    90.21691   178.64244     3.48141    89.78309   181.35756     3.48141
     4.80000    90.21693   178.64239     3.48140    89.78307   181.35761     3.48140
     4.90000    90.21694   178.64233     3.48139    89.78306   181.35767     3.48139
     5.00000    90.21695   178.64227     3.48138    89.78305   181.35773     3.48138
     5.10000    90.21697   178.64221     3.48137    89.78303   181.35779     3.48137
     5.20000    90.21698   178.64216     3.48136    89.78302   181.35784     3.48136
     5.30000    90.21699   178.64210     3.48135    89.78301   181.35790     3.48135
     5.40000    90.21701   178.64204     3.48134    89.78299   181.35796     3.48134
     5.50000    90.21702   178.64199     3.48133    89.78298   181.35801     3.48133
     5.60000    90.21703   178.64193     3.48132    89.78297   181.35807     3.48132
     5.70000    90.21705   178.64187     3.48131    89.78295   181.35813     3.48131
     5.80000    90.21706   178.64181     3.48130    89.78294   181.35819     3.48130
     5.90000    90.21707   178.64176     3.48129    89.78293   181.35824     3.48129
     6.00000    90.21709   178.64170     3.48128    89.78291   181.35830     3.48128
     6.10000    90.21710   178.64164     3.48127    89.78290   181.35836     3.48127
     6.20000    90.21711   178.64159     3.48126    89.78289   181.35841     3.48126
     6.30000    90.21713   178.64153     3.48125    89.78287   181.35847     3.48125
     6.40000    90.21714   178.64147     3.48124    89.78286   181.35853     3.48124
     6.50000    90.21715   178.64141     3.48123    89.78285   181.35859     3.48123
     6.60000    90.21717   178.64136     3.48122    89.78283   181.35864     3.48122
     6.70000    90.21718   178.64130     3.48121    89.78282   181.35870     3.48121
     6.80000    90.21719   178.64124     3.48120    89.78281   181.35876     3.48120
     6.90000    90.21721   178.64119     3.48119    89.78279   181.35881     3.48119
     7.00000    90.21722   178.64113     3.48118    89.78278   181.35887     3.48118
     7.10000    90.21723   178.64107     3.48117    89.78277   181.35893     3.48117
     7.20000    90.21725   178.64101     3.48116    89.78275   181.35899     3.48116
     7.30000    90.21726   178.64096     3.48115    89.78274   181.35904     3.48115
     7.40000    90.21727   178.64090     3.48114    89.78273   181.35910     3.48114
     7.50000    90.21729   178.64084     3.48113    89.78271   181.35916     3.48113
     7.60000    90.21730   178.64079     3.48112    89.78270   181.35921     3.48112
     7.70000    90.21731   178.64073     3.48111    89.78269   181.35927     3.48111
     7.80000    90.21733   178.64067     3.48110    89.78267   181.35933     3.48110
     7.90000    90.21734   178.64061     3.48109    89.78266   181.35939     3.48109
     8.00000    90.21735   178.64056     3.48108    89.78265   181.35944     3.48108
     8.10000    90.21737   178.64050     3.48107    89.78263   181.35950     3.48107
     8.20000    90.21738   178.64044     3.48106    89.78262   181.35956     3.48106
     8.30000    90.21739   178.64039     3.48105    89.78261   181.35961     3.48105
     8.40000    90.21741   178.64033     3.48104    89.78259   181.35967     3.48104
     8.50000    90.21742   178.64027     3.48103    89.78258   181.35973     3.48103
     8.60000    90.21743   178.64021     3.48102    89.78257   181.35979     3.48102
     8.70000    90.21745   178.64016     3.48101    89.78255   181.35984     3.48101
     8.80000    90.21746   178.64010     3.48100    89.78254   181.35990     3.48100
     8.90000    90.21747   178.64004     3.48099    89.78253   181.35996     3.48099
     9.00000    90.21749   178.63998     3.48097    89.78251   181.36002     3.48097
     9.10000    90.21750   178.63993     3.48096    89.78250   181.36007     3.48096
     9.20000    90.21751   178.63987     3.48095    89.78249   181.36013     3.48095
     9.30000    90.21753   178.63981     3.48094    89.78247   181.36019     3.48094
     9.40000    90.21754   178.63976     3.48093    89.78246   181.36024     3.48093
     9.50000    90.21755   178.63970     3.48092    89.78245   181.36030     3.48092
     9.60000    90.21757   178.63964     3.48091    89.78243   181.36036     3.48091
     9.70000    90.21758   178.63958     3.48090    89.78242   181.36042     3.48090
     9.80000    90.21759   178.63953     3.48089    89.78241   181.36047     3.48089
     9.90000    90.21761   178.63947     3.48088    89.78239   181.36053     3.48088
    10.00000    90.21762   178.63941     3.48087    89.78238   181.36059     3.48087
    10.10000    90.21763   178.63935     3.48086    89.78237   181.36065     3.48086
    10.20000    90.21765   178.63930     3.48085    89.78235   181.36070     3.48085
    10.30000    90.21766   178.63924     3.48084    89.78234   181.36076     3.48084
    10.40000    90.21767   178.63918     3.48083    89.78233   181.36082     3.48083
    10.50000    90.21769   178.63913     3.48081    89.78231   181.36087     3.48081
    10.60000    90.21770   178.63907     3.48080    89.78230   181.36093     3.48080
    10.70000    90.21771   178.63901     3.48079    89.78229   181.36099     3.48079
    10.80000    90.21773   178.63895     3.48078    89.78227   181.36105     3.48078
    10.90000    90.21774   178.63890     3.48077    89.78226   181.36110     3.48077
    11.00000    90.21775   178.63884     3.48076    89.78225   181.36116     3.48076
    11.10000    90.21777   178.63878     3.48075    89.78223   181.36122     3.48075
    11.20000    90.21778   178.63872     3.48074    89.78222   181.36128     3.48074
    11.30000    90.21779   178.63867     3.48073    89.78221   181.36133     3.48073
    11.40000    90.21781   178.63861     3.48072    89.78219   181.36139     3.48072
    11.50000    90.21782   178.63855     3.48071    89.78218   181.36145     3.48071
    11.60000    90.21784   178.63850     3.48069    89.78216   181.36150     3.48069
    11.70000    90.21785   178.63844     3.48068    89.78215   181.36156     3.48068
    11.80000    90.21786   178.63838     3.48067    89.78214   181.36162     3.48067
    11.90000    90.21788   178.63832     3.48066    89.78212   181.36168     3.48066
    12.00000    90.21789   178.63827     3.48065    89.78211   181.36173     3.48065
    12.10000    90.21790   178.63821     3.48064    89.78210   181.36179     3.48064
    12.20000    90.21792   178.63815     3.48063    89.78208   181.36185     3.48063
    12.30000    90.21793   178.63809     3.48062    89.78207   181.36191     3.48062
    12.40000    90.21794   178.63804     3.48061    89.78206   181.36196     3.48061
    12.50000    90.21796   178.63798     3.48059    89.78204   181.36202     3.48059
    12.60000    90.21797   178.63792     3.48058    89.78203   181.36208     3.48058
    12.70000    90.21798   178.63786     3.48057    89.78202   181.36214     3.48057
    12.80000    90.21800   178.63781     3.48056    89.78200   181.36219     3.48056
    12.90000    90.21801   178.63775     3.48055    89.78199   181.36225     3.48055
    13.00000    90.21802   178.63769     3.48054    89.78198   181.36231     3.48054
    13.10000    90.21804   178.63764     3.48053    89.78196   181.36236     3.48053
    13.20000    90.21805   178.63758     3.48051    89.78195   181.36242     3.48051
    13.30000    90.21806   178.63752     3.48050    89.78194   181.36248     3.48050
    13.40000    90.21808   178.63746     3.48049    89.78192   181.36254     3.48049
    13.50000    90.21809   178.63741     3.48048    89.78191   181.36259     3.48048
    13.60000    90.21810   178.63735     3.48047    89.78190   181.36265     3.48047
    13.70000    90.21812   178.63729     3.48046    89.78188   181.36271     3.48046
    13.80000    90.21813   178.63723     3.48045    89.78187   181.36277     3.48045
    13.90000    90.21814   178.63718     3.48043    89.78186   181.36282     3.48043
    14.00000    90.21816   178.63712     3.48042    89.78184   181.36288     3.48042
    14.10000    90.21817   178.63706     3.48041    89.78183   181.36294     3.48041
    14.20000    90.21818   178.63700     3.48040    89.78182   181.36300     3.48040
    14.30000    90.21820   178.63695     3.48039    89.78180   181.36305     3.48039
    14.40000    90.21821   178.63689     3.48038    89.78179   181.36311     3.48038
    14.50000    90.21822   178.63683     3.48037    89.78178   181.36317     3.48037
    14.60000    90.21824   178.63677     3.48035    89.78176   181.36323     3.48035
    14.70000    90.21825   178.63672     3.48034    89.78175   181.36328     3.48034
    14.80000    90.21826   178.63666     3.48033    89.78174   181.36334     3.48033
    14.90000    90.21828   178.63660     3.48032    89.78172   181.36340     3.48032
    15.00000    90.21829   178.63654     3.48031    89.78171   181.36346     3.48031
    15.10000    90.21830   178.63649     3.48030    89.78170   181.36351     3.48030
    15.20000    90.21832   178.63643     3.48028    89.78168   181.36357     3.48028
    15.30000    90.21833   178.63637     3.48027    89.78167   181.36363     3.48027
    15.40000    90.21834   178.63631     3.48026    89.78166   181.36369     3.48026
    15.50000    90.21836   178.63626     3.48025    89.78164   181.36374     3.48025
    15.60000    90.21837   178.63620     3.48024    89.78163   181.36380     3.48024
    15.70000    90.21838   178.63614     3.48022    89.78162   181.36386     3.48022
    15.80000    90.21840   178.63608     3.48021    89.78160   181.36392     3.48021
    15.90000    90.21841   178.63603     3.48020    89.78159   181.36397     3.48020
    16.00000    90.21842   178.63597     3.48019    89.78158   181.36403     3.48019
    16.10000    90.21844   178.63591     3.48018    89.78156   181.36409     3.48018
    16.20000    90.21845   178.63585     3.48016    89.78155   181.36415     3.48016
    16.30000    90.21846   178.63580     3.48015    89.78154   181.36420     3.48015
    16.40000    90.21848   178.63574     3.48014    89.78152   181.36426     3.48014
    16.50000    90.21849   178.63568     3.48013    89.78151   181.36432     3.48013
    16.60000    90.21850   178.63562     3.48012    89.78150   181.36438     3.48012
    16.70000    90.21852   178.63557     3.48010    89.78148   181.36443     3.48010
    16.80000    90.21853   178.63551     3.48009    89.78147   181.36449     3.48009
    16.90000    90.21854   178.63545     3.48008    89.78146   181.36455     3.48008
    17.00000    90.21856   178.63539     3.48007    89.78144   181.36461     3.48007
    17.10000    90.21857   178.63534     3.48006    89.78143   181.36466     3.48006
    17.20000    90.21858   178.63528     3.48004    89.78142   181.36472     3.48004
    17.30000    90.21860   178.63522     3.48003    89.78140   181.36478     3.48003
    17.40000    90.21861   178.63516     3.48002    89.78139   181.36484     3.48002
    17.50000    90.21862   178.63511     3.48001    89.78138   181.36489     3.48001
    17.60000    90.21864   178.63505     3.48000    89.78136   181.36495     3.48000
    17.70000    90.21865   178.63499     3.47998    89.78135   181.36501     3.47998
    17.80000    90.21866   178.63493     3.47997    89.78134   181.36507     3.47997
    17.90000    90.21868   178.63488     3.47996    89.78132   181.36512     3.47996
    18.00000    90.21869   178.63482     3.47995    89.78131   181.36518     3.47995
    18.10000    90.21870   178.63476     3.47993    89.78130   181.36524     3.47993
    18.20000    90.21872   178.63470     3.47992    89.78128   181.36530     3.47992
    18.30000    90.21873   178.63465     3.47991    89.78127   181.36535     3.47991
    18.40000    90.21874   178.63459     3.47990    89.78126   181.36541     3.47990
    18.50000    90.21876   178.63453     3.47988    89.78124   181.36547     3.47988
    18.60000    90.21877   178.63447     3.47987    89.78123   181.36553     3.47987
    18.70000    90.21878   178.63442     3.47986    89.78122   181.36558     3.47986
    18.80000    90.21880   178.63436     3.47985    89.78120   181.36564     3.47985
    18.90000    90.21881   178.63430     3.47983    89.78119   181.36570     3.47983
    19.00000    90.21882   178.63424     3.47982    89.78118   181.36576     3.47982
    19.10000    90.21884   178.63419     3.47981    89.78116   181.36581     3.47981
    19.20000    90.21885   178.63413     3.47980    89.78115   181.36587     3.47980
    19.30000    90.21886   178.63407     3.47978    89.78114   181.36593     3.47978
    19.40000    90.21888   178.63401     3.47977    89.78112   181.36599     3.47977
    19.50000    90.21889   178.63395     3.47976    89.78111   181.36605     3.47976
    19.60000    90.21890   178.63390     3.47975    89.78110   181.36610     3.47975
    19.70000    90.21892   178.63384     3.47973    89.78108   181.36616     3.47973
    19.80000    90.21893   178.63378     3.47972    89.78107   181.36622     3.47972
    19.90000    90.21894   178.63372     3.47971    89.78106   181.36628     3.47971
    20.00000    90.21896   178.63367     3.47970    89.78104   181.36633     3.47970
    20.10000    90.21897   178.63361     3.47968    89.78103   181.36639     3.47968
    20.20000    90.21898   178.63355     3.47967    89.78102   181.36645     3.47967
    20.30000    90.21900   178.63349     3.47966    89.78100   181.36651     3.47966
    20.40000    90.21901   178.63344     3.47964    89.78099   181.36656     3.47964
    20.50000    90.21902   178.63338     3.47963    89.78098   181.36662     3.47963
    20.60000    90.21904   178.63332     3.47962    89.78096   181.36668     3.47962
    20.70000    90.21905   178.63326     3.47961    89.78095   181.36674     3.47961
    20.80000    90.21906   178.63321     3.47959    89.78094   181.36679     3.47959
    20.90000    90.21908   178.63315     3.47958    89.78092   181.36685     3.47958
    21.00000    90.21909   178.63309     3.47957    89.78091   181.36691     3.47957
    21.10000    90.21911   178.63303     3.47955    89.78089   181.36697     3.47955
    21.20000    90.21912   178.63297     3.47954    89.78088   181.36703     3.47954
    21.30000    90.21913   178.63292     3.47953    89.78087   181.36708     3.47953
    21.40000    90.21915   178.63286     3.47951    89.78085   181.36714     3.47951
    21.50000    90.21916   178.63280     3.47950    89.78084   181.36720     3.47950
    21.60000    90.21917   178.63274     3.47949    89.78083   181.36726     3.47949
    21.70000    90.21919   178.63269     3.47948    89.78081   181.36731     3.47948
    21.80000    90.21920   178.63263     3.47946    89.78080   181.36737     3.47946
    21.90000    90.21921   178.63257     3.47945    89.78079   181.36743     3.47945
    22.00000    90.21923   178.63251     3.47944    89.78077   181.36749     3.47944
    22.10000    90.21924   178.63245     3.47942    89.78076   181.36755     3.47942
    22.20000    90.21925   178.63240     3.47941    89.78075   181.36760     3.47941
    22.30000    90.21927   178.63234     3.47940    89.78073   181.36766     3.47940
    22.40000    90.21928   178.63228     3.47938    89.78072   181.36772     3.47938
    22.50000    90.21929   178.63222     3.47937    89.78071   181.36778     3.47937
    22.60000    90.21931   178.63217     3.47936    89.78069   181.36783     3.47936
    22.70000    90.21932   178.63211     3.47934    89.78068   181.36789     3.47934
    22.80000    90.21933   178.63205     3.47933    89.78067   181.36795     3.47933
    22.90000    90.21935   178.63199     3.47932    89.78065   181.36801     3.47932
    23.00000    90.21936   178.63193     3.47930    89.78064   181.36807     3.47930
    23.10000    90.21937   178.63188     3.47929    89.78063   181.36812     3.47929
    23.20000    90.21939   178.63182     3.47928    89.78061   181.36818     3.47928
    23.30000    90.21940   178.63176     3.47926    89.78060   181.36824     3.47926
    23.40000    90.21941   178.63170     3.47925    89.78059   181.36830     3.47925
    23.50000    90.21943   178.63165     3.47924    89.78057   181.36835     3.47924
    23.60000    90.21944   178.63159     3.47922    89.78056   181.36841     3.47922
    23.70000    90.21945   178.63153     3.47921    89.78055   181.36847     3.47921
    23.80000    90.21947   178.63147     3.47920    89.78053   181.36853     3.47920
    23.90000    90.21948   178.63141     3.47918    89.78052   181.36859     3.47918
    24.00000    90.21949   178.63136     3.47917    89.78051   181.36864     3.47917
    24.10000    90.21951   178.63130     3.47916    89.78049   181.36870     3.47916
    24.20000    90.21952   178.63124     3.47914    89.78048   181.36876     3.47914
    24.30000    90.21953   178.63118     3.47913    89.78047   181.36882     3.47913
    24.40000    90.21955   178.63113     3.47912    89.78045   181.36887     3.47912
    24.50000    90.21956   178.63107     3.47910    89.78044   181.36893     3.47910
    24.60000    90.21957   178.63101     3.47909    89.78043   181.36899     3.47909
    24.70000    90.21959   178.63095     3.47907    89.78041   181.36905     3.47907
    24.80000    90.21960   178.63089     3.47906    89.78040   181.36911     3.47906
    24.90000    90.21961   178.63084     3.47905    89.78039   181.36916     3.47905
    25.00000    90.21963   178.63078     3.47903    89.78037   181.36922     3.47903
    25.10000    90.21964   178.63072     3.47902    89.78036   181.36928     3.47902
    25.20000    90.21965   178.63066     3.47901    89.78035   181.36934     3.47901
    25.30000    90.21967   178.63060     3.47899    89.78033   181.36940     3.47899
    25.40000    90.21968   178.63055     3.47898    89.78032   181.36945     3.47898
    25.50000    90.21969   178.63049     3.47896    89.78031   181.36951     3.47896
    25.60000    90.21971   178.63043     3.47895    89.78029   181.36957     3.47895
    25.70000    90.21972   178.63037     3.47894    89.78028   181.36963     3.47894
    25.80000    90.21973   178.63032     3.47892    89.78027   181.36968     3.47892
    25.90000    90.21975   178.63026     3.47891    89.78025   181.36974     3.47891
    26.00000    90.21976   178.63020     3.47889    89.78024   181.36980     3.47889
    26.10000    90.21977   178.63014     3.47888    89.78023   181.36986     3.47888
    26.20000    90.21979   178.63008     3.47887    89.78021   181.36992     3.47887
    26.30000    90.21980   178.63003     3.47885    89.78020   181.36997     3.47885
    26.40000    90.21981   178.62997     3.47884    89.78019   181.37003     3.47884
    26.50000    90.21983   178.62991     3.47882    89.78017   181.37009     3.47882
    26.60000    90.21984   178.62985     3.47881    89.78016   181.37015     3.47881
    26.70000    90.21985   178.62979     3.47880    89.78015   181.37021     3.47880
    26.80000    90.21987   178.62974     3.47878    89.78013   181.37026     3.47878
    26.90000    90.21988   178.62968     3.47877    89.78012   181.37032     3.47877
    27.00000    90.21989   178.62962     3.47875    89.78011   181.37038     3.47875
    27.10000    90.21991   178.62956     3.47874    89.78009   181.37044     3.47874
    27.20000    90.21992   178.62950     3.47873    89.78008   181.37050     3.47873
    27.30000    90.21993   178.62945     3.47871    89.78007   181.37055     3.47871
    27.40000    90.21995   178.62939     3.47870    89.78005   181.37061     3.47870
    27.50000    90.21996   178.62933     3.47868    89.78004   181.37067     3.47868
    27.60000    90.21997   178.62927     3.47867    89.78003   181.37073     3.47867
    27.70000    90.21999   178.62921     3.47865    89.78001   181.37079     3.47865
    27.80000    90.22000   178.62916     3.47864    89.78000   181.37084     3.47864
    27.90000    90.22001   178.62910     3.47863    89.77999   181.37090     3.47863
    28.00000    90.22003   178.62904     3.47861    89.77997   181.37096     3.47861
    28.10000    90.22004   178.62898     3.47860    89.77996   181.37102     3.47860
    28.20000    90.22005   178.62892     3.47858    89.77995   181.37108     3.47858
    28.30000    90.22007   178.62887     3.47857    89.77993   181.37113     3.47857
    28.40000    90.22008   178.62881     3.47855    89.77992   181.37119     3.47855
    28.50000    90.22010   178.62875     3.47854    89.77990   181.37125     3.47854
    28.60000    90.22011   178.62869     3.47853    89.77989   181.37131     3.47853
    28.70000    90.22012   178.62863     3.47851    89.77988   181.37137     3.47851
    28.80000    90.22014   178.62858     3.47850    89.77986   181.37142     3.47850
    28.90000    90.22015   178.62852     3.47848    89.77985   181.37148     3.47848
    29.00000    90.22016   178.62846     3.47847    89.77984   181.37154     3.47847
    29.10000    90.22018   178.62840     3.47845    89.77982   181.37160     3.47845
    29.20000    90.22019   178.62834     3.47844    89.77981   181.37166     3.47844
    29.30000    90.22020   178.62829     3.47842    89.77980   181.37171     3.47842
    29.40000    90.22022   178.62823     3.47841    89.77978   181.37177     3.47841
    29.50000    90.22023   178.62817     3.47839    89.77977   181.37183     3.47839
    29.60000    90.22024   178.62811     3.47838    89.77976   181.37189     3.47838
    29.70000    90.22026   178.62805     3.47836    89.77974   181.37195     3.47836
    29.80000    90.22027   178.62800     3.47835    89.77973   181.37200     3.47835
    29.90000    90.22028   178.62794     3.47834    89.77972   181.37206     3.47834
    30.00000    90.22030   178.62788     3.47832    89.77970   181.37212     3.47832
    30.10000    90.22031   178.62782     3.47831    89.77969   181.37218     3.47831
    30.20000    90.22032   178.62776     3.47829    89.77968   181.37224     3.47829
    30.30000    90.22034   178.62771     3.47828    89.77966   181.37229     3.47828
    30.40000    90.22035   178.62765     3.47826    89.77965   181.37235     3.47826
    30.50000    90.22036   178.62759     3.47825    89.77964   181.37241     3.47825
    30.60000    90.22038   178.62753     3.47823    89.77962   181.37247     3.47823
    30.70000    90.22039   178.62747     3.47822    89.77961   181.37253     3.47822
    30.80000    90.22040   178.62741     3.47820    89.77960   181.37259     3.47820
    30.90000    90.22042   178.62736     3.47819    89.77958   181.37264     3.47819
    31.00000    90.22043   178.62730     3.47817    89.77957   181.37270     3.47817
    31.10000    90.22044   178.62724     3.47816    89.77956   181.37276     3.47816
    31.20000    90.22046   178.62718     3.47814    89.77954   181.37282     3.47814
    31.30000    90.22047   178.62712     3.47813    89.77953   181.37288     3.47813
    31.40000    90.22048   178.62707     3.47811    89.77952   181.37293     3.47811
    31.50000    90.22050   178.62701     3.47810    89.77950   181.37299     3.47810
    31.60000    90.22051   178.62695     3.47808    89.77949   181.37305     3.47808
    31.70000    90.22052   178.62689     3.47807    89.77948   181.37311     3.47807
    31.80000    90.22054   178.62683     3.47805    89.77946   181.37317     3.47805
    31.90000    90.22055   178.62677     3.47804    89.77945   181.37323     3.47804
    32.00000    90.22056   178.62672     3.47802    89.77944   181.37328     3.47802
    32.10000    90.22058   178.62666     3.47801    89.77942   181.37334     3.47801
    32.20000    90.22059   178.62660     3.47799    89.77941   181.37340     3.47799
    32.30000    90.22060   178.62654     3.47798    89.77940   181.37346     3.47798
    32.40000    90.22062   178.62648     3.47796    89.77938   181.37352     3.47796
    32.50000    90.22063   178.62643     3.47795    89.77937   181.37357     3.47795
    32.60000    90.22064   178.62637     3.47793    89.77936   181.37363     3.47793
    32.70000    90.22066   178.62631     3.47791    89.77934   181.37369     3.47791
    32.80000    90.22067   178.62625     3.47790    89.77933   181.37375     3.47790
    32.90000    90.22068   178.62619     3.47788    89.77932   181.37381     3.47788
    33.00000    90.22070   178.62613     3.47787    89.77930   181.37387     3.47787
    33.10000    90.22071   178.62608     3.47785    89.77929   181.37392     3.47785
    33.20000    90.22072   178.62602     3.47784    89.77928   181.37398     3.47784
    33.30000    90.22074   178.62596     3.47782    89.77926   181.37404     3.47782
    33.40000    90.22075   178.62590     3.47781    89.77925   181.37410     3.47781
    33.50000    90.22076   178.62584     3.47779    89.77924   181.37416     3.47779
    33.60000    90.22078   178.62578     3.47778    89.77922   181.37422     3.47778
    33.70000    90.22079   178.62573     3.47776    89.77921   181.37427     3.47776
    33.80000    90.22080   178.62567     3.47775    89.77920   181.37433     3.47775
    33.90000    90.22082   178.62561     3.47773    89.77918   181.37439     3.47773
    34.00000    90.22083   178.62555     3.47771    89.77917   181.37445     3.47771
    34.10000    90.22084   178.62549     3.47770    89.77916   181.37451     3.47770
    34.20000    90.22086   178.62544     3.47768    89.77914   181.37456     3.47768
    34.30000    90.22087   178.62538     3.47767    89.77913   181.37462     3.47767
    34.40000    90.22088   178.62532     3.47765    89.77912   181.37468     3.47765
    34.50000    90.22090   178.62526     3.47764    89.77910   181.37474     3.47764
    34.60000    90.22091   178.62520     3.47762    89.77909   181.37480     3.47762
    34.70000    90.22093   178.62514     3.47760    89.77907   181.37486     3.47760
    34.80000    90.22094   178.62509     3.47759    89.77906   181.37491     3.47759
    34.90000    90.22095   178.62503     3.47757    89.77905   181.37497     3.47757
    35.00000    90.22097   178.62497     3.47756    89.77903   181.37503     3.47756
    35.10000    90.22098   178.62491     3.47754    89.77902   181.37509     3.47754
    35.20000    90.22099   178.62485     3.47753    89.77901   181.37515     3.47753
    35.30000    90.22101   178.62479     3.47751    89.77899   181.37521     3.47751
    35.40000    90.22102   178.62474     3.47749    89.77898   181.37526     3.47749
    35.50000    90.22103   178.62468     3.47748    89.77897   181.37532     3.47748
    35.60000    90.22105   178.62462     3.47746    89.77895   181.37538     3.47746
    35.70000    90.22106   178.62456     3.47745    89.77894   181.37544     3.47745
    35.80000    90.22107   178.62450     3.47743    89.77893   181.37550     3.47743
    35.90000    90.22109   178.62444     3.47741    89.77891   181.37556     3.47741
    36.00000    90.22110   178.62439     3.47740    89.77890   181.37561     3.47740
    36.10000    90.22111   178.62433     3.47738    89.77889   181.37567     3.47738
    36.20000    90.22113   178.62427     3.47737    89.77887   181.37573     3.47737
    36.30000    90.22114   178.62421     3.47735    89.77886   181.37579     3.47735
    36.40000    90.22115   178.62415     3.47733    89.77885   181.37585     3.47733
    36.50000    90.22117   178.62409     3.47732    89.77883   181.37591     3.47732
    36.60000    90.22118   178.62403     3.47730    89.77882   181.37597     3.47730
    36.70000    90.22119   178.62398     3.47729    89.77881   181.37602     3.47729
    36.80000    90.22121   178.62392     3.47727    89.77879   181.37608     3.47727
    36.90000    90.22122   178.62386     3.47725    89.77878   181.37614     3.47725
    37.00000    90.22123   178.62380     3.47724    89.77877   181.37620     3.47724
    37.10000    90.22125   178.62374     3.47722    89.77875   181.37626     3.47722
    37.20000    90.22126   178.62368     3.47721    89.77874   181.37632     3.47721
    37.30000    90.22127   178.62363     3.47719    89.77873   181.37637     3.47719
    37.40000    90.22129   178.62357     3.47717    89.77871   181.37643     3.47717
    37.50000    90.22130   178.62351     3.47716    89.77870   181.37649     3.47716
    37.60000    90.22131   178.62345     3.47714    89.77869   181.37655     3.47714
    37.70000    90.22133   178.62339     3.47712    89.77867   181.37661     3.47712
    37.80000    90.22134   178.62333     3.47711    89.77866   181.37667     3.47711
    37.90000    90.22135   178.62328     3.47709    89.77865   181.37672     3.47709
    38.00000    90.22137   178.62322     3.47708    89.77863   181.37678     3.47708
    38.10000    90.22138   178.62316     3.47706    89.77862   181.37684     3.47706
    38.20000    90.22139   178.62310     3.47704    89.77861   181.37690     3.47704
    38.30000    90.22141   178.62304     3.47703    89.77859   181.37696     3.47703
    38.40000    90.22142   178.62298     3.47701    89.77858   181.37702     3.47701
    38.50000    90.22143   178.62292     3.47699    89.77857   181.37708     3.47699
    38.60000    90.22145   178.62287     3.47698    89.77855   181.37713     3.47698
    38.70000    90.22146   178.62281     3.47696    89.77854   181.37719     3.47696
    38.80000    90.22147   178.62275     3.47694    89.77853   181.37725     3.47694
    38.90000    90.22149   178.62269     3.47693    89.77851   181.37731     3.47693
    39.00000    90.22150   178.62263     3.47691    89.77850   181.37737     3.47691
    39.10000    90.22151   178.62257     3.47689    89.77849   181.37743     3.47689
    39.20000    90.22153   178.62251     3.47688    89.77847   181.37749     3.47688
    39.30000    90.22154   178.62246     3.47686    89.77846   181.37754     3.47686
    39.40000    90.22156   178.62240     3.47684    89.77844   181.37760     3.47684
    39.50000    90.22157   178.62234     3.47683    89.77843   181.37766     3.47683
    39.60000    90.22158   178.62228     3.47681    89.77842   181.37772     3.47681
    39.70000    90.22160   178.62222     3.47679    89.77840   181.37778     3.47679
    39.80000    90.22161   178.62216     3.47678    89.77839   181.37784     3.47678
    39.90000    90.22162   178.62210     3.47676    89.77838   181.37790     3.47676
    40.00000    90.22164   178.62205     3.47674    89.77836   181.37795     3.47674
