 # applied field (T), theta (degree), phi (degree), abs for RE 1-2
     0.00000     0.09031   315.00000     3.97176     0.09031   225.00000     3.97176
     0.10000     0.80735   353.87817     3.97148     0.67518   356.35004     3.97411
     0.20000     1.59835   356.04612     3.97108     1.46426   359.18377     3.97654
     0.30000     2.33803   356.73890     3.97063     2.20223   359.98935     3.97871
     0.40000     3.13108   357.11270     3.97007     2.99331     0.40764     3.98094
     0.50000     3.92492   357.33118     3.96942     3.78500     0.64810     3.98306
     0.60000     4.66683   357.46481     3.96874     4.52473     0.79457     3.98493
     0.70000     5.46238   357.56465     3.96793     5.31777     0.90456     3.98682
     0.80000     6.25894   357.63635     3.96704     6.11165     0.98461     3.98859
     0.90000     7.00359   357.68634     3.96614     6.85364     1.04159     3.99012
     1.00000     7.80234   357.72713     3.96511     7.64936     1.08950     3.99163
     1.10000     8.60233   357.75830     3.96400     8.44614     1.12768     3.99300
     1.20000     9.40366   357.78230     3.96282     9.24409     1.15872     3.99423
     1.30000    10.25974   357.80186     3.96149    10.09636     1.18596     3.99538
     1.40000    11.06407   357.81582     3.96018    10.89692     1.20728     3.99631
     1.50000    11.92351   357.82700     3.95871    11.75214     1.22658     3.99712
     1.60000    12.73113   357.83470     3.95728    12.55560     1.24211     3.99772
     1.70000    13.59423   357.84050     3.95569    13.41406     1.25653     3.99819
     1.80000    14.51326   357.84441     3.95393    14.32792     1.26992     3.99848
     1.90000    15.38055   357.84638     3.95223    15.19011     1.28106     3.99856
     2.00000    16.24995   357.84697     3.95048    16.05420     1.29106     3.99844
     2.10000    17.17586   357.84632     3.94856    16.97425     1.30068     3.99811
     2.20000    18.15877   357.84446     3.94649    17.95070     1.30997     3.99751
     2.30000    19.08988   357.84179     3.94448    18.87550     1.31805     3.99671
     2.40000    20.07838   357.83815     3.94233    19.85713     1.32602     3.99561
     2.50000    21.06982   357.83383     3.94014    20.84150     1.33351     3.99426
     2.60000    22.11937   357.82867     3.93780    21.88344     1.34100     3.99256
     2.70000    23.17224   357.82302     3.93543    22.92859     1.34816     3.99056
     2.80000    24.28392   357.81665     3.93293    24.03210     1.35543     3.98815
     2.90000    25.39927   357.80996     3.93042    25.13930     1.36249     3.98543
     3.00000    26.63003   357.80234     3.92766    26.36125     1.37009     3.98207
     3.10000    27.80905   357.79492     3.92503    27.53212     1.37723     3.97853
     3.20000    29.10453   357.78670     3.92217    28.81913     1.38500     3.97427
     3.30000    30.46106   357.77813     3.91923    30.16754     1.39311     3.96942
     3.40000    31.87913   357.76931     3.91621    31.57818     1.40160     3.96395
     3.50000    33.35915   357.76035     3.91313    33.05188     1.41055     3.95785
     3.60000    34.95862   357.75105     3.90991    34.64655     1.42040     3.95083
     3.70000    36.67847   357.74160     3.90658    36.36401     1.43127     3.94288
     3.80000    38.57708   357.73195     3.90308    38.26390     1.44374     3.93368
     3.90000    40.59799   357.72270     3.89956    40.29132     1.45769     3.92355
     4.00000    42.91556   357.71352     3.89580    42.62368     1.47473     3.91168
     4.10000    45.53172   357.70520     3.89192    45.26680     1.49559     3.89825
     4.20000    48.68130   357.69825     3.88775    48.46392     1.52341     3.88251
     4.30000    52.65952   357.69461     3.88323    52.52527     1.56334     3.86417
     4.40000    58.46718   357.70018     3.87791    58.49306     1.63177     3.84249
     4.50000    89.64209   357.94456     3.85950    90.35791     2.05544     3.85950
     4.60000    89.64210   357.94467     3.85960    90.35790     2.05533     3.85960
     4.70000    89.64211   357.94478     3.85970    90.35789     2.05522     3.85970
     4.80000    89.64213   357.94489     3.85980    90.35787     2.05511     3.85980
     4.90000    89.64214   357.94500     3.85990    90.35786     2.05500     3.85990
     5.00000    89.64215   357.94511     3.86000    90.35785     2.05489     3.86000
     5.10000    89.64216   357.94522     3.86010    90.35784     2.05478     3.86010
     5.20000    89.64218   357.94533     3.86020    90.35782     2.05467     3.86020
     5.30000    89.64219   357.94544     3.86030    90.35781     2.05456     3.86030
     5.40000    89.64220   357.94555     3.86040    90.35780     2.05445     3.86040
     5.50000    89.64221   357.94566     3.86050    90.35779     2.05434     3.86050
     5.60000    89.64222   357.94577     3.86060    90.35778     2.05423     3.86060
     5.70000    89.64224   357.94588     3.86070    90.35776     2.05412     3.86070
     5.80000    89.64225   357.94599     3.86080    90.35775     2.05401     3.86080
     5.90000    89.64226   357.94610     3.86090    90.35774     2.05390     3.86090
     6.00000    89.64227   357.94621     3.86100    90.35773     2.05379     3.86100
     6.10000    89.64229   357.94632     3.86110    90.35771     2.05368     3.86110
     6.20000    89.64230   357.94643     3.86120    90.35770     2.05357     3.86120
     6.30000    89.64231   357.94654     3.86130    90.35769     2.05346     3.86130
     6.40000    89.64232   357.94665     3.86140    90.35768     2.05335     3.86140
     6.50000    89.64234   357.94676     3.86150    90.35766     2.05324     3.86150
     6.60000    89.64235   357.94687     3.86160    90.35765     2.05313     3.86160
     6.70000    89.64236   357.94698     3.86170    90.35764     2.05302     3.86170
     6.80000    89.64237   357.94709     3.86180    90.35763     2.05291     3.86180
     6.90000    89.64239   357.94720     3.86190    90.35761     2.05280     3.86190
     7.00000    89.64240   357.94731     3.86200    90.35760     2.05269     3.86200
     7.10000    89.64241   357.94742     3.86210    90.35759     2.05258     3.86210
     7.20000    89.64242   357.94752     3.86220    90.35758     2.05248     3.86220
     7.30000    89.64243   357.94763     3.86230    90.35757     2.05237     3.86230
     7.40000    89.64245   357.94774     3.86240    90.35755     2.05226     3.86240
     7.50000    89.64246   357.94785     3.86250    90.35754     2.05215     3.86250
     7.60000    89.64247   357.94796     3.86260    90.35753     2.05204     3.86260
     7.70000    89.64248   357.94807     3.86270    90.35752     2.05193     3.86270
     7.80000    89.64250   357.94818     3.86280    90.35750     2.05182     3.86280
     7.90000    89.64251   357.94829     3.86289    90.35749     2.05171     3.86289
     8.00000    89.64252   357.94840     3.86299    90.35748     2.05160     3.86299
     8.10000    89.64253   357.94851     3.86309    90.35747     2.05149     3.86309
     8.20000    89.64255   357.94862     3.86319    90.35745     2.05138     3.86319
     8.30000    89.64256   357.94873     3.86329    90.35744     2.05127     3.86329
     8.40000    89.64257   357.94884     3.86339    90.35743     2.05116     3.86339
     8.50000    89.64258   357.94895     3.86349    90.35742     2.05105     3.86349
     8.60000    89.64259   357.94906     3.86359    90.35741     2.05094     3.86359
     8.70000    89.64261   357.94917     3.86369    90.35739     2.05083     3.86369
     8.80000    89.64262   357.94928     3.86379    90.35738     2.05072     3.86379
     8.90000    89.64263   357.94939     3.86389    90.35737     2.05061     3.86389
     9.00000    89.64264   357.94950     3.86398    90.35736     2.05050     3.86398
     9.10000    89.64266   357.94961     3.86408    90.35734     2.05039     3.86408
     9.20000    89.64267   357.94971     3.86418    90.35733     2.05029     3.86418
     9.30000    89.64268   357.94982     3.86428    90.35732     2.05018     3.86428
     9.40000    89.64269   357.94993     3.86438    90.35731     2.05007     3.86438
     9.50000    89.64271   357.95004     3.86448    90.35729     2.04996     3.86448
     9.60000    89.64272   357.95015     3.86458    90.35728     2.04985     3.86458
     9.70000    89.64273   357.95026     3.86468    90.35727     2.04974     3.86468
     9.80000    89.64274   357.95037     3.86477    90.35726     2.04963     3.86477
     9.90000    89.64275   357.95048     3.86487    90.35725     2.04952     3.86487
    10.00000    89.64277   357.95059     3.86497    90.35723     2.04941     3.86497
    10.10000    89.64278   357.95070     3.86507    90.35722     2.04930     3.86507
    10.20000    89.64279   357.95081     3.86517    90.35721     2.04919     3.86517
    10.30000    89.64280   357.95092     3.86527    90.35720     2.04908     3.86527
    10.40000    89.64282   357.95102     3.86537    90.35718     2.04898     3.86537
    10.50000    89.64283   357.95113     3.86546    90.35717     2.04887     3.86546
    10.60000    89.64284   357.95124     3.86556    90.35716     2.04876     3.86556
    10.70000    89.64285   357.95135     3.86566    90.35715     2.04865     3.86566
    10.80000    89.64287   357.95146     3.86576    90.35713     2.04854     3.86576
    10.90000    89.64288   357.95157     3.86586    90.35712     2.04843     3.86586
    11.00000    89.64289   357.95168     3.86596    90.35711     2.04832     3.86596
    11.10000    89.64290   357.95179     3.86605    90.35710     2.04821     3.86605
    11.20000    89.64291   357.95190     3.86615    90.35709     2.04810     3.86615
    11.30000    89.64293   357.95201     3.86625    90.35707     2.04799     3.86625
    11.40000    89.64294   357.95211     3.86635    90.35706     2.04789     3.86635
    11.50000    89.64295   357.95222     3.86645    90.35705     2.04778     3.86645
    11.60000    89.64296   357.95233     3.86655    90.35704     2.04767     3.86655
    11.70000    89.64298   357.95244     3.86664    90.35702     2.04756     3.86664
    11.80000    89.64299   357.95255     3.86674    90.35701     2.04745     3.86674
    11.90000    89.64300   357.95266     3.86684    90.35700     2.04734     3.86684
    12.00000    89.64301   357.95277     3.86694    90.35699     2.04723     3.86694
    12.10000    89.64303   357.95288     3.86704    90.35697     2.04712     3.86704
    12.20000    89.64304   357.95298     3.86713    90.35696     2.04702     3.86713
    12.30000    89.64305   357.95309     3.86723    90.35695     2.04691     3.86723
    12.40000    89.64306   357.95320     3.86733    90.35694     2.04680     3.86733
    12.50000    89.64307   357.95331     3.86743    90.35693     2.04669     3.86743
    12.60000    89.64309   357.95342     3.86752    90.35691     2.04658     3.86752
    12.70000    89.64310   357.95353     3.86762    90.35690     2.04647     3.86762
    12.80000    89.64311   357.95364     3.86772    90.35689     2.04636     3.86772
    12.90000    89.64312   357.95374     3.86782    90.35688     2.04626     3.86782
    13.00000    89.64314   357.95385     3.86792    90.35686     2.04615     3.86792
    13.10000    89.64315   357.95396     3.86801    90.35685     2.04604     3.86801
    13.20000    89.64316   357.95407     3.86811    90.35684     2.04593     3.86811
    13.30000    89.64317   357.95418     3.86821    90.35683     2.04582     3.86821
    13.40000    89.64319   357.95429     3.86831    90.35681     2.04571     3.86831
    13.50000    89.64320   357.95440     3.86840    90.35680     2.04560     3.86840
    13.60000    89.64321   357.95450     3.86850    90.35679     2.04550     3.86850
    13.70000    89.64322   357.95461     3.86860    90.35678     2.04539     3.86860
    13.80000    89.64323   357.95472     3.86870    90.35677     2.04528     3.86870
    13.90000    89.64325   357.95483     3.86879    90.35675     2.04517     3.86879
    14.00000    89.64326   357.95494     3.86889    90.35674     2.04506     3.86889
    14.10000    89.64327   357.95505     3.86899    90.35673     2.04495     3.86899
    14.20000    89.64328   357.95515     3.86908    90.35672     2.04485     3.86908
    14.30000    89.64330   357.95526     3.86918    90.35670     2.04474     3.86918
    14.40000    89.64331   357.95537     3.86928    90.35669     2.04463     3.86928
    14.50000    89.64332   357.95548     3.86938    90.35668     2.04452     3.86938
    14.60000    89.64333   357.95559     3.86947    90.35667     2.04441     3.86947
    14.70000    89.64335   357.95570     3.86957    90.35665     2.04430     3.86957
    14.80000    89.64336   357.95580     3.86967    90.35664     2.04420     3.86967
    14.90000    89.64337   357.95591     3.86976    90.35663     2.04409     3.86976
    15.00000    89.64338   357.95602     3.86986    90.35662     2.04398     3.86986
    15.10000    89.64339   357.95613     3.86996    90.35661     2.04387     3.86996
    15.20000    89.64341   357.95624     3.87006    90.35659     2.04376     3.87006
    15.30000    89.64342   357.95635     3.87015    90.35658     2.04365     3.87015
    15.40000    89.64343   357.95645     3.87025    90.35657     2.04355     3.87025
    15.50000    89.64344   357.95656     3.87035    90.35656     2.04344     3.87035
    15.60000    89.64346   357.95667     3.87044    90.35654     2.04333     3.87044
    15.70000    89.64347   357.95678     3.87054    90.35653     2.04322     3.87054
    15.80000    89.64348   357.95689     3.87064    90.35652     2.04311     3.87064
    15.90000    89.64349   357.95699     3.87073    90.35651     2.04301     3.87073
    16.00000    89.64350   357.95710     3.87083    90.35650     2.04290     3.87083
    16.10000    89.64352   357.95721     3.87093    90.35648     2.04279     3.87093
    16.20000    89.64353   357.95732     3.87102    90.35647     2.04268     3.87102
    16.30000    89.64354   357.95743     3.87112    90.35646     2.04257     3.87112
    16.40000    89.64355   357.95753     3.87122    90.35645     2.04247     3.87122
    16.50000    89.64357   357.95764     3.87131    90.35643     2.04236     3.87131
    16.60000    89.64358   357.95775     3.87141    90.35642     2.04225     3.87141
    16.70000    89.64359   357.95786     3.87151    90.35641     2.04214     3.87151
    16.80000    89.64360   357.95796     3.87160    90.35640     2.04204     3.87160
    16.90000    89.64362   357.95807     3.87170    90.35638     2.04193     3.87170
    17.00000    89.64363   357.95818     3.87180    90.35637     2.04182     3.87180
    17.10000    89.64364   357.95829     3.87189    90.35636     2.04171     3.87189
    17.20000    89.64365   357.95840     3.87199    90.35635     2.04160     3.87199
    17.30000    89.64366   357.95850     3.87208    90.35634     2.04150     3.87208
    17.40000    89.64368   357.95861     3.87218    90.35632     2.04139     3.87218
    17.50000    89.64369   357.95872     3.87228    90.35631     2.04128     3.87228
    17.60000    89.64370   357.95883     3.87237    90.35630     2.04117     3.87237
    17.70000    89.64371   357.95893     3.87247    90.35629     2.04107     3.87247
    17.80000    89.64373   357.95904     3.87256    90.35627     2.04096     3.87256
    17.90000    89.64374   357.95915     3.87266    90.35626     2.04085     3.87266
    18.00000    89.64375   357.95926     3.87276    90.35625     2.04074     3.87276
    18.10000    89.64376   357.95936     3.87285    90.35624     2.04064     3.87285
    18.20000    89.64378   357.95947     3.87295    90.35622     2.04053     3.87295
    18.30000    89.64379   357.95958     3.87305    90.35621     2.04042     3.87305
    18.40000    89.64380   357.95969     3.87314    90.35620     2.04031     3.87314
    18.50000    89.64381   357.95979     3.87324    90.35619     2.04021     3.87324
    18.60000    89.64382   357.95990     3.87333    90.35618     2.04010     3.87333
    18.70000    89.64384   357.96001     3.87343    90.35616     2.03999     3.87343
    18.80000    89.64385   357.96012     3.87352    90.35615     2.03988     3.87352
    18.90000    89.64386   357.96022     3.87362    90.35614     2.03978     3.87362
    19.00000    89.64387   357.96033     3.87372    90.35613     2.03967     3.87372
    19.10000    89.64389   357.96044     3.87381    90.35611     2.03956     3.87381
    19.20000    89.64390   357.96055     3.87391    90.35610     2.03945     3.87391
    19.30000    89.64391   357.96065     3.87400    90.35609     2.03935     3.87400
    19.40000    89.64392   357.96076     3.87410    90.35608     2.03924     3.87410
    19.50000    89.64393   357.96087     3.87419    90.35607     2.03913     3.87419
    19.60000    89.64395   357.96098     3.87429    90.35605     2.03902     3.87429
    19.70000    89.64396   357.96108     3.87439    90.35604     2.03892     3.87439
    19.80000    89.64397   357.96119     3.87448    90.35603     2.03881     3.87448
    19.90000    89.64398   357.96130     3.87458    90.35602     2.03870     3.87458
    20.00000    89.64400   357.96141     3.87467    90.35600     2.03859     3.87467
    20.10000    89.64401   357.96151     3.87477    90.35599     2.03849     3.87477
    20.20000    89.64402   357.96162     3.87486    90.35598     2.03838     3.87486
    20.30000    89.64403   357.96173     3.87496    90.35597     2.03827     3.87496
    20.40000    89.64404   357.96183     3.87505    90.35596     2.03817     3.87505
    20.50000    89.64406   357.96194     3.87515    90.35594     2.03806     3.87515
    20.60000    89.64407   357.96205     3.87524    90.35593     2.03795     3.87524
    20.70000    89.64408   357.96216     3.87534    90.35592     2.03784     3.87534
    20.80000    89.64409   357.96226     3.87543    90.35591     2.03774     3.87543
    20.90000    89.64411   357.96237     3.87553    90.35589     2.03763     3.87553
    21.00000    89.64412   357.96248     3.87562    90.35588     2.03752     3.87562
    21.10000    89.64413   357.96258     3.87572    90.35587     2.03742     3.87572
    21.20000    89.64414   357.96269     3.87581    90.35586     2.03731     3.87581
    21.30000    89.64416   357.96280     3.87591    90.35584     2.03720     3.87591
    21.40000    89.64417   357.96290     3.87600    90.35583     2.03710     3.87600
    21.50000    89.64418   357.96301     3.87610    90.35582     2.03699     3.87610
    21.60000    89.64419   357.96312     3.87619    90.35581     2.03688     3.87619
    21.70000    89.64420   357.96322     3.87629    90.35580     2.03678     3.87629
    21.80000    89.64422   357.96333     3.87638    90.35578     2.03667     3.87638
    21.90000    89.64423   357.96344     3.87648    90.35577     2.03656     3.87648
    22.00000    89.64424   357.96355     3.87657    90.35576     2.03645     3.87657
    22.10000    89.64425   357.96365     3.87667    90.35575     2.03635     3.87667
    22.20000    89.64427   357.96376     3.87676    90.35573     2.03624     3.87676
    22.30000    89.64428   357.96387     3.87686    90.35572     2.03613     3.87686
    22.40000    89.64429   357.96397     3.87695    90.35571     2.03603     3.87695
    22.50000    89.64430   357.96408     3.87705    90.35570     2.03592     3.87705
    22.60000    89.64431   357.96419     3.87714    90.35569     2.03581     3.87714
    22.70000    89.64433   357.96429     3.87724    90.35567     2.03571     3.87724
    22.80000    89.64434   357.96440     3.87733    90.35566     2.03560     3.87733
    22.90000    89.64435   357.96451     3.87743    90.35565     2.03549     3.87743
    23.00000    89.64436   357.96461     3.87752    90.35564     2.03539     3.87752
    23.10000    89.64438   357.96472     3.87761    90.35562     2.03528     3.87761
    23.20000    89.64439   357.96483     3.87771    90.35561     2.03517     3.87771
    23.30000    89.64440   357.96493     3.87780    90.35560     2.03507     3.87780
    23.40000    89.64441   357.96504     3.87790    90.35559     2.03496     3.87790
    23.50000    89.64442   357.96515     3.87799    90.35558     2.03485     3.87799
    23.60000    89.64444   357.96525     3.87809    90.35556     2.03475     3.87809
    23.70000    89.64445   357.96536     3.87818    90.35555     2.03464     3.87818
    23.80000    89.64446   357.96547     3.87827    90.35554     2.03453     3.87827
    23.90000    89.64447   357.96557     3.87837    90.35553     2.03443     3.87837
    24.00000    89.64449   357.96568     3.87846    90.35551     2.03432     3.87846
    24.10000    89.64450   357.96578     3.87856    90.35550     2.03422     3.87856
    24.20000    89.64451   357.96589     3.87865    90.35549     2.03411     3.87865
    24.30000    89.64452   357.96600     3.87875    90.35548     2.03400     3.87875
    24.40000    89.64454   357.96610     3.87884    90.35546     2.03390     3.87884
    24.50000    89.64455   357.96621     3.87893    90.35545     2.03379     3.87893
    24.60000    89.64456   357.96632     3.87903    90.35544     2.03368     3.87903
    24.70000    89.64457   357.96642     3.87912    90.35543     2.03358     3.87912
    24.80000    89.64458   357.96653     3.87922    90.35542     2.03347     3.87922
    24.90000    89.64460   357.96664     3.87931    90.35540     2.03336     3.87931
    25.00000    89.64461   357.96674     3.87940    90.35539     2.03326     3.87940
    25.10000    89.64462   357.96685     3.87950    90.35538     2.03315     3.87950
    25.20000    89.64463   357.96695     3.87959    90.35537     2.03305     3.87959
    25.30000    89.64465   357.96706     3.87968    90.35535     2.03294     3.87968
    25.40000    89.64466   357.96717     3.87978    90.35534     2.03283     3.87978
    25.50000    89.64467   357.96727     3.87987    90.35533     2.03273     3.87987
    25.60000    89.64468   357.96738     3.87997    90.35532     2.03262     3.87997
    25.70000    89.64469   357.96748     3.88006    90.35531     2.03252     3.88006
    25.80000    89.64471   357.96759     3.88015    90.35529     2.03241     3.88015
    25.90000    89.64472   357.96770     3.88025    90.35528     2.03230     3.88025
    26.00000    89.64473   357.96780     3.88034    90.35527     2.03220     3.88034
    26.10000    89.64474   357.96791     3.88043    90.35526     2.03209     3.88043
    26.20000    89.64476   357.96802     3.88053    90.35524     2.03198     3.88053
    26.30000    89.64477   357.96812     3.88062    90.35523     2.03188     3.88062
    26.40000    89.64478   357.96823     3.88071    90.35522     2.03177     3.88071
    26.50000    89.64479   357.96833     3.88081    90.35521     2.03167     3.88081
    26.60000    89.64480   357.96844     3.88090    90.35520     2.03156     3.88090
    26.70000    89.64482   357.96855     3.88099    90.35518     2.03145     3.88099
    26.80000    89.64483   357.96865     3.88109    90.35517     2.03135     3.88109
    26.90000    89.64484   357.96876     3.88118    90.35516     2.03124     3.88118
    27.00000    89.64485   357.96886     3.88127    90.35515     2.03114     3.88127
    27.10000    89.64487   357.96897     3.88137    90.35513     2.03103     3.88137
    27.20000    89.64488   357.96907     3.88146    90.35512     2.03093     3.88146
    27.30000    89.64489   357.96918     3.88155    90.35511     2.03082     3.88155
    27.40000    89.64490   357.96929     3.88165    90.35510     2.03071     3.88165
    27.50000    89.64491   357.96939     3.88174    90.35509     2.03061     3.88174
    27.60000    89.64493   357.96950     3.88183    90.35507     2.03050     3.88183
    27.70000    89.64494   357.96960     3.88193    90.35506     2.03040     3.88193
    27.80000    89.64495   357.96971     3.88202    90.35505     2.03029     3.88202
    27.90000    89.64496   357.96981     3.88211    90.35504     2.03019     3.88211
    28.00000    89.64498   357.96992     3.88220    90.35502     2.03008     3.88220
    28.10000    89.64499   357.97003     3.88230    90.35501     2.02997     3.88230
    28.20000    89.64500   357.97013     3.88239    90.35500     2.02987     3.88239
    28.30000    89.64501   357.97024     3.88248    90.35499     2.02976     3.88248
    28.40000    89.64502   357.97034     3.88258    90.35498     2.02966     3.88258
    28.50000    89.64504   357.97045     3.88267    90.35496     2.02955     3.88267
    28.60000    89.64505   357.97055     3.88276    90.35495     2.02945     3.88276
    28.70000    89.64506   357.97066     3.88285    90.35494     2.02934     3.88285
    28.80000    89.64507   357.97077     3.88295    90.35493     2.02923     3.88295
    28.90000    89.64509   357.97087     3.88304    90.35491     2.02913     3.88304
    29.00000    89.64510   357.97098     3.88313    90.35490     2.02902     3.88313
    29.10000    89.64511   357.97108     3.88322    90.35489     2.02892     3.88322
    29.20000    89.64512   357.97119     3.88332    90.35488     2.02881     3.88332
    29.30000    89.64513   357.97129     3.88341    90.35487     2.02871     3.88341
    29.40000    89.64515   357.97140     3.88350    90.35485     2.02860     3.88350
    29.50000    89.64516   357.97150     3.88359    90.35484     2.02850     3.88359
    29.60000    89.64517   357.97161     3.88369    90.35483     2.02839     3.88369
    29.70000    89.64518   357.97171     3.88378    90.35482     2.02829     3.88378
    29.80000    89.64520   357.97182     3.88387    90.35480     2.02818     3.88387
    29.90000    89.64521   357.97193     3.88396    90.35479     2.02807     3.88396
    30.00000    89.64522   357.97203     3.88406    90.35478     2.02797     3.88406
    30.10000    89.64523   357.97214     3.88415    90.35477     2.02786     3.88415
    30.20000    89.64524   357.97224     3.88424    90.35476     2.02776     3.88424
    30.30000    89.64526   357.97235     3.88433    90.35474     2.02765     3.88433
    30.40000    89.64527   357.97245     3.88443    90.35473     2.02755     3.88443
    30.50000    89.64528   357.97256     3.88452    90.35472     2.02744     3.88452
    30.60000    89.64529   357.97266     3.88461    90.35471     2.02734     3.88461
    30.70000    89.64531   357.97277     3.88470    90.35469     2.02723     3.88470
    30.80000    89.64532   357.97287     3.88479    90.35468     2.02713     3.88479
    30.90000    89.64533   357.97298     3.88489    90.35467     2.02702     3.88489
    31.00000    89.64534   357.97308     3.88498    90.35466     2.02692     3.88498
    31.10000    89.64535   357.97319     3.88507    90.35465     2.02681     3.88507
    31.20000    89.64537   357.97329     3.88516    90.35463     2.02671     3.88516
    31.30000    89.64538   357.97340     3.88525    90.35462     2.02660     3.88525
    31.40000    89.64539   357.97350     3.88535    90.35461     2.02650     3.88535
    31.50000    89.64540   357.97361     3.88544    90.35460     2.02639     3.88544
    31.60000    89.64542   357.97371     3.88553    90.35458     2.02629     3.88553
    31.70000    89.64543   357.97382     3.88562    90.35457     2.02618     3.88562
    31.80000    89.64544   357.97392     3.88571    90.35456     2.02608     3.88571
    31.90000    89.64545   357.97403     3.88580    90.35455     2.02597     3.88580
    32.00000    89.64546   357.97413     3.88590    90.35454     2.02587     3.88590
    32.10000    89.64548   357.97424     3.88599    90.35452     2.02576     3.88599
    32.20000    89.64549   357.97434     3.88608    90.35451     2.02566     3.88608
    32.30000    89.64550   357.97445     3.88617    90.35450     2.02555     3.88617
    32.40000    89.64551   357.97455     3.88626    90.35449     2.02545     3.88626
    32.50000    89.64553   357.97466     3.88635    90.35447     2.02534     3.88635
    32.60000    89.64554   357.97476     3.88645    90.35446     2.02524     3.88645
    32.70000    89.64555   357.97487     3.88654    90.35445     2.02513     3.88654
    32.80000    89.64556   357.97497     3.88663    90.35444     2.02503     3.88663
    32.90000    89.64557   357.97508     3.88672    90.35443     2.02492     3.88672
    33.00000    89.64559   357.97518     3.88681    90.35441     2.02482     3.88681
    33.10000    89.64560   357.97529     3.88690    90.35440     2.02471     3.88690
    33.20000    89.64561   357.97539     3.88699    90.35439     2.02461     3.88699
    33.30000    89.64562   357.97549     3.88709    90.35438     2.02451     3.88709
    33.40000    89.64564   357.97560     3.88718    90.35436     2.02440     3.88718
    33.50000    89.64565   357.97570     3.88727    90.35435     2.02430     3.88727
    33.60000    89.64566   357.97581     3.88736    90.35434     2.02419     3.88736
    33.70000    89.64567   357.97591     3.88745    90.35433     2.02409     3.88745
    33.80000    89.64568   357.97602     3.88754    90.35432     2.02398     3.88754
    33.90000    89.64570   357.97612     3.88763    90.35430     2.02388     3.88763
    34.00000    89.64571   357.97623     3.88772    90.35429     2.02377     3.88772
    34.10000    89.64572   357.97633     3.88781    90.35428     2.02367     3.88781
    34.20000    89.64573   357.97644     3.88791    90.35427     2.02356     3.88791
    34.30000    89.64574   357.97654     3.88800    90.35426     2.02346     3.88800
    34.40000    89.64576   357.97664     3.88809    90.35424     2.02336     3.88809
    34.50000    89.64577   357.97675     3.88818    90.35423     2.02325     3.88818
    34.60000    89.64578   357.97685     3.88827    90.35422     2.02315     3.88827
    34.70000    89.64579   357.97696     3.88836    90.35421     2.02304     3.88836
    34.80000    89.64581   357.97706     3.88845    90.35419     2.02294     3.88845
    34.90000    89.64582   357.97717     3.88854    90.35418     2.02283     3.88854
    35.00000    89.64583   357.97727     3.88863    90.35417     2.02273     3.88863
    35.10000    89.64584   357.97738     3.88872    90.35416     2.02262     3.88872
    35.20000    89.64585   357.97748     3.88881    90.35415     2.02252     3.88881
    35.30000    89.64587   357.97758     3.88891    90.35413     2.02242     3.88891
    35.40000    89.64588   357.97769     3.88900    90.35412     2.02231     3.88900
    35.50000    89.64589   357.97779     3.88909    90.35411     2.02221     3.88909
    35.60000    89.64590   357.97790     3.88918    90.35410     2.02210     3.88918
    35.70000    89.64592   357.97800     3.88927    90.35408     2.02200     3.88927
    35.80000    89.64593   357.97811     3.88936    90.35407     2.02189     3.88936
    35.90000    89.64594   357.97821     3.88945    90.35406     2.02179     3.88945
    36.00000    89.64595   357.97831     3.88954    90.35405     2.02169     3.88954
    36.10000    89.64596   357.97842     3.88963    90.35404     2.02158     3.88963
    36.20000    89.64598   357.97852     3.88972    90.35402     2.02148     3.88972
    36.30000    89.64599   357.97863     3.88981    90.35401     2.02137     3.88981
    36.40000    89.64600   357.97873     3.88990    90.35400     2.02127     3.88990
    36.50000    89.64601   357.97883     3.88999    90.35399     2.02117     3.88999
    36.60000    89.64603   357.97894     3.89008    90.35397     2.02106     3.89008
    36.70000    89.64604   357.97904     3.89017    90.35396     2.02096     3.89017
    36.80000    89.64605   357.97915     3.89026    90.35395     2.02085     3.89026
    36.90000    89.64606   357.97925     3.89035    90.35394     2.02075     3.89035
    37.00000    89.64607   357.97935     3.89044    90.35393     2.02065     3.89044
    37.10000    89.64609   357.97946     3.89053    90.35391     2.02054     3.89053
    37.20000    89.64610   357.97956     3.89062    90.35390     2.02044     3.89062
    37.30000    89.64611   357.97967     3.89071    90.35389     2.02033     3.89071
    37.40000    89.64612   357.97977     3.89080    90.35388     2.02023     3.89080
    37.50000    89.64613   357.97987     3.89089    90.35387     2.02013     3.89089
    37.60000    89.64615   357.97998     3.89098    90.35385     2.02002     3.89098
    37.70000    89.64616   357.98008     3.89107    90.35384     2.01992     3.89107
    37.80000    89.64617   357.98019     3.89116    90.35383     2.01981     3.89116
    37.90000    89.64618   357.98029     3.89125    90.35382     2.01971     3.89125
    38.00000    89.64620   357.98039     3.89134    90.35380     2.01961     3.89134
    38.10000    89.64621   357.98050     3.89143    90.35379     2.01950     3.89143
    38.20000    89.64622   357.98060     3.89152    90.35378     2.01940     3.89152
    38.30000    89.64623   357.98070     3.89161    90.35377     2.01930     3.89161
    38.40000    89.64624   357.98081     3.89170    90.35376     2.01919     3.89170
    38.50000    89.64626   357.98091     3.89179    90.35374     2.01909     3.89179
    38.60000    89.64627   357.98101     3.89188    90.35373     2.01899     3.89188
    38.70000    89.64628   357.98112     3.89197    90.35372     2.01888     3.89197
    38.80000    89.64629   357.98122     3.89206    90.35371     2.01878     3.89206
    38.90000    89.64631   357.98133     3.89215    90.35369     2.01867     3.89215
    39.00000    89.64632   357.98143     3.89224    90.35368     2.01857     3.89224
    39.10000    89.64633   357.98153     3.89233    90.35367     2.01847     3.89233
    39.20000    89.64634   357.98164     3.89242    90.35366     2.01836     3.89242
    39.30000    89.64635   357.98174     3.89251    90.35365     2.01826     3.89251
    39.40000    89.64637   357.98184     3.89260    90.35363     2.01816     3.89260
    39.50000    89.64638   357.98195     3.89269    90.35362     2.01805     3.89269
    39.60000    89.64639   357.98205     3.89278    90.35361     2.01795     3.89278
    39.70000    89.64640   357.98215     3.89286    90.35360     2.01785     3.89286
    39.80000    89.64641   357.98226     3.89295    90.35359     2.01774     3.89295
    39.90000    89.64643   357.98236     3.89304    90.35357     2.01764     3.89304
    40.00000    89.64644   357.98246     3.89313    90.35356     2.01754     3.89313
