 # applied field (T), theta (degree), phi (degree), abs for RE 3-4
     0.00000     0.00000     0.00000     4.69736     0.00000     0.00000     4.69736
     0.10000     0.41248    38.01372     4.69736     0.41248    51.98628     4.69736
     0.20000     0.82502    38.01267     4.69734     0.82502    51.98733     4.69734
     0.30000     1.23769    38.01093     4.69731     1.23769    51.98907     4.69731
     0.40000    90.00000    34.15399     4.69952    90.00000    55.84601     4.69952
     0.50000    90.00000    34.15526     4.69950    90.00000    55.84474     4.69950
     0.60000    90.00000    34.15652     4.69948    90.00000    55.84348     4.69948
     0.70000    90.00000    34.15779     4.69946    90.00000    55.84221     4.69946
     0.80000    90.00000    34.15906     4.69944    90.00000    55.84094     4.69944
     0.90000    90.00000    34.16033     4.69942    90.00000    55.83967     4.69942
     1.00000    90.00000    34.16159     4.69940    90.00000    55.83841     4.69940
     1.10000    90.00000    34.16286     4.69938    90.00000    55.83714     4.69938
     1.20000    90.00000    34.16412     4.69936    90.00000    55.83588     4.69936
     1.30000    90.00000    34.16539     4.69934    90.00000    55.83461     4.69934
     1.40000    90.00000    34.16665     4.69932    90.00000    55.83335     4.69932
     1.50000    90.00000    34.16792     4.69930    90.00000    55.83208     4.69930
     1.60000    90.00000    34.16918     4.69928    90.00000    55.83082     4.69928
     1.70000    90.00000    34.17044     4.69926    90.00000    55.82956     4.69926
     1.80000    90.00000    34.17171     4.69924    90.00000    55.82829     4.69924
     1.90000    90.00000    34.17297     4.69922    90.00000    55.82703     4.69922
     2.00000    90.00000    34.17423     4.69920    90.00000    55.82577     4.69920
     2.10000    90.00000    34.17549     4.69918    90.00000    55.82451     4.69918
     2.20000    90.00000    34.17676     4.69916    90.00000    55.82324     4.69916
     2.30000    90.00000    34.17802     4.69914    90.00000    55.82198     4.69914
     2.40000    90.00000    34.17928     4.69912    90.00000    55.82072     4.69912
     2.50000    90.00000    34.18054     4.69910    90.00000    55.81946     4.69910
     2.60000    90.00000    34.18180     4.69908    90.00000    55.81820     4.69908
     2.70000    90.00000    34.18306     4.69906    90.00000    55.81694     4.69906
     2.80000    90.00000    34.18432     4.69904    90.00000    55.81568     4.69904
     2.90000    90.00000    34.18558     4.69902    90.00000    55.81442     4.69902
     3.00000    90.00000    34.18684     4.69900    90.00000    55.81316     4.69900
     3.10000    90.00000    34.18809     4.69898    90.00000    55.81191     4.69898
     3.20000    90.00000    34.18935     4.69896    90.00000    55.81065     4.69896
     3.30000    90.00000    34.19061     4.69894    90.00000    55.80939     4.69894
     3.40000    90.00000    34.19187     4.69892    90.00000    55.80813     4.69892
     3.50000    90.00000    34.19312     4.69890    90.00000    55.80688     4.69890
     3.60000    90.00000    34.19438     4.69888    90.00000    55.80562     4.69888
     3.70000    90.00000    34.19564     4.69886    90.00000    55.80436     4.69886
     3.80000    90.00000    34.19689     4.69884    90.00000    55.80311     4.69884
     3.90000    90.00000    34.19815     4.69882    90.00000    55.80185     4.69882
     4.00000    90.00000    34.19940     4.69880    90.00000    55.80060     4.69880
     4.10000    90.00000    34.20066     4.69878    90.00000    55.79934     4.69878
     4.20000    90.00000    34.20191     4.69876    90.00000    55.79809     4.69876
     4.30000    90.00000    34.20316     4.69874    90.00000    55.79684     4.69874
     4.40000    90.00000    34.20442     4.69872    90.00000    55.79558     4.69872
     4.50000    90.00000    34.20567     4.69870    90.00000    55.79433     4.69870
     4.60000    90.00000    34.20692     4.69868    90.00000    55.79308     4.69868
     4.70000    90.00000    34.20818     4.69866    90.00000    55.79182     4.69866
     4.80000    90.00000    34.20943     4.69864    90.00000    55.79057     4.69864
     4.90000    90.00000    34.21068     4.69862    90.00000    55.78932     4.69862
     5.00000    90.00000    34.21193     4.69860    90.00000    55.78807     4.69860
     5.10000    90.00000    34.21318     4.69858    90.00000    55.78682     4.69858
     5.20000    90.00000    34.21443     4.69856    90.00000    55.78557     4.69856
     5.30000    90.00000    34.21568     4.69854    90.00000    55.78432     4.69854
     5.40000    90.00000    34.21693     4.69852    90.00000    55.78307     4.69852
     5.50000    90.00000    34.21818     4.69850    90.00000    55.78182     4.69850
     5.60000    90.00000    34.21943     4.69848    90.00000    55.78057     4.69848
     5.70000    90.00000    34.22068     4.69846    90.00000    55.77932     4.69846
     5.80000    90.00000    34.22193     4.69844    90.00000    55.77807     4.69844
     5.90000    90.00000    34.22318     4.69842    90.00000    55.77682     4.69842
     6.00000    90.00000    34.22442     4.69840    90.00000    55.77558     4.69840
     6.10000    90.00000    34.22567     4.69838    90.00000    55.77433     4.69838
     6.20000    90.00000    34.22692     4.69836    90.00000    55.77308     4.69836
     6.30000    90.00000    34.22816     4.69834    90.00000    55.77184     4.69834
     6.40000    90.00000    34.22941     4.69832    90.00000    55.77059     4.69832
     6.50000    90.00000    34.23066     4.69830    90.00000    55.76934     4.69830
     6.60000    90.00000    34.23190     4.69828    90.00000    55.76810     4.69828
     6.70000    90.00000    34.23315     4.69826    90.00000    55.76685     4.69826
     6.80000    90.00000    34.23439     4.69824    90.00000    55.76561     4.69824
     6.90000    90.00000    34.23564     4.69822    90.00000    55.76436     4.69822
     7.00000    90.00000    34.23688     4.69820    90.00000    55.76312     4.69820
     7.10000    90.00000    34.23812     4.69818    90.00000    55.76188     4.69818
     7.20000    90.00000    34.23937     4.69816    90.00000    55.76063     4.69816
     7.30000    90.00000    34.24061     4.69814    90.00000    55.75939     4.69814
     7.40000    90.00000    34.24185     4.69812    90.00000    55.75815     4.69812
     7.50000    90.00000    34.24309     4.69810    90.00000    55.75691     4.69810
     7.60000    90.00000    34.24434     4.69808    90.00000    55.75566     4.69808
     7.70000    90.00000    34.24558     4.69806    90.00000    55.75442     4.69806
     7.80000    90.00000    34.24682     4.69804    90.00000    55.75318     4.69804
     7.90000    90.00000    34.24806     4.69802    90.00000    55.75194     4.69802
     8.00000    90.00000    34.24930     4.69800    90.00000    55.75070     4.69800
     8.10000    90.00000    34.25054     4.69798    90.00000    55.74946     4.69798
     8.20000    90.00000    34.25178     4.69796    90.00000    55.74822     4.69796
     8.30000    90.00000    34.25302     4.69794    90.00000    55.74698     4.69794
     8.40000    90.00000    34.25426     4.69792    90.00000    55.74574     4.69792
     8.50000    90.00000    34.25550     4.69790    90.00000    55.74450     4.69790
     8.60000    90.00000    34.25673     4.69788    90.00000    55.74327     4.69788
     8.70000    90.00000    34.25797     4.69786    90.00000    55.74203     4.69786
     8.80000    90.00000    34.25921     4.69784    90.00000    55.74079     4.69784
     8.90000    90.00000    34.26045     4.69782    90.00000    55.73955     4.69782
     9.00000    90.00000    34.26168     4.69780    90.00000    55.73832     4.69780
     9.10000    90.00000    34.26292     4.69778    90.00000    55.73708     4.69778
     9.20000    90.00000    34.26415     4.69776    90.00000    55.73585     4.69776
     9.30000    90.00000    34.26539     4.69774    90.00000    55.73461     4.69774
     9.40000    90.00000    34.26662     4.69772    90.00000    55.73338     4.69772
     9.50000    90.00000    34.26786     4.69770    90.00000    55.73214     4.69770
     9.60000    90.00000    34.26909     4.69768    90.00000    55.73091     4.69768
     9.70000    90.00000    34.27033     4.69766    90.00000    55.72967     4.69766
     9.80000    90.00000    34.27156     4.69764    90.00000    55.72844     4.69764
     9.90000    90.00000    34.27280     4.69762    90.00000    55.72720     4.69762
    10.00000    90.00000    34.27403     4.69760    90.00000    55.72597     4.69760
    10.10000    90.00000    34.27526     4.69758    90.00000    55.72474     4.69758
    10.20000    90.00000    34.27649     4.69756    90.00000    55.72351     4.69756
    10.30000    90.00000    34.27773     4.69754    90.00000    55.72227     4.69754
    10.40000    90.00000    34.27896     4.69752    90.00000    55.72104     4.69752
    10.50000    90.00000    34.28019     4.69750    90.00000    55.71981     4.69750
    10.60000    90.00000    34.28142     4.69748    90.00000    55.71858     4.69748
    10.70000    90.00000    34.28265     4.69746    90.00000    55.71735     4.69746
    10.80000    90.00000    34.28388     4.69744    90.00000    55.71612     4.69744
    10.90000    90.00000    34.28511     4.69742    90.00000    55.71489     4.69742
    11.00000    90.00000    34.28634     4.69740    90.00000    55.71366     4.69740
    11.10000    90.00000    34.28757     4.69738    90.00000    55.71243     4.69738
    11.20000    90.00000    34.28880     4.69736    90.00000    55.71120     4.69736
    11.30000    90.00000    34.29002     4.69734    90.00000    55.70998     4.69734
    11.40000    90.00000    34.29125     4.69732    90.00000    55.70875     4.69732
    11.50000    90.00000    34.29248     4.69730    90.00000    55.70752     4.69730
    11.60000    90.00000    34.29371     4.69728    90.00000    55.70629     4.69728
    11.70000    90.00000    34.29493     4.69726    90.00000    55.70507     4.69726
    11.80000    90.00000    34.29616     4.69724    90.00000    55.70384     4.69724
    11.90000    90.00000    34.29739     4.69722    90.00000    55.70261     4.69722
    12.00000    90.00000    34.29861     4.69719    90.00000    55.70139     4.69719
    12.10000    90.00000    34.29984     4.69717    90.00000    55.70016     4.69717
    12.20000    90.00000    34.30106     4.69715    90.00000    55.69894     4.69715
    12.30000    90.00000    34.30229     4.69713    90.00000    55.69771     4.69713
    12.40000    90.00000    34.30351     4.69711    90.00000    55.69649     4.69711
    12.50000    90.00000    34.30474     4.69709    90.00000    55.69526     4.69709
    12.60000    90.00000    34.30596     4.69707    90.00000    55.69404     4.69707
    12.70000    90.00000    34.30718     4.69705    90.00000    55.69282     4.69705
    12.80000    90.00000    34.30841     4.69703    90.00000    55.69159     4.69703
    12.90000    90.00000    34.30963     4.69701    90.00000    55.69037     4.69701
    13.00000    90.00000    34.31085     4.69699    90.00000    55.68915     4.69699
    13.10000    90.00000    34.31207     4.69697    90.00000    55.68793     4.69697
    13.20000    90.00000    34.31329     4.69695    90.00000    55.68671     4.69695
    13.30000    90.00000    34.31452     4.69693    90.00000    55.68548     4.69693
    13.40000    90.00000    34.31574     4.69691    90.00000    55.68426     4.69691
    13.50000    90.00000    34.31696     4.69689    90.00000    55.68304     4.69689
    13.60000    90.00000    34.31818     4.69687    90.00000    55.68182     4.69687
    13.70000    90.00000    34.31940     4.69685    90.00000    55.68060     4.69685
    13.80000    90.00000    34.32062     4.69683    90.00000    55.67938     4.69683
    13.90000    90.00000    34.32183     4.69681    90.00000    55.67817     4.69681
    14.00000    90.00000    34.32305     4.69679    90.00000    55.67695     4.69679
    14.10000    90.00000    34.32427     4.69677    90.00000    55.67573     4.69677
    14.20000    90.00000    34.32549     4.69675    90.00000    55.67451     4.69675
    14.30000    90.00000    34.32671     4.69673    90.00000    55.67329     4.69673
    14.40000    90.00000    34.32792     4.69671    90.00000    55.67208     4.69671
    14.50000    90.00000    34.32914     4.69669    90.00000    55.67086     4.69669
    14.60000    90.00000    34.33036     4.69667    90.00000    55.66964     4.69667
    14.70000    90.00000    34.33157     4.69665    90.00000    55.66843     4.69665
    14.80000    90.00000    34.33279     4.69663    90.00000    55.66721     4.69663
    14.90000    90.00000    34.33400     4.69661    90.00000    55.66600     4.69661
    15.00000    90.00000    34.33522     4.69659    90.00000    55.66478     4.69659
    15.10000    90.00000    34.33643     4.69657    90.00000    55.66357     4.69657
    15.20000    90.00000    34.33765     4.69655    90.00000    55.66235     4.69655
    15.30000    90.00000    34.33886     4.69653    90.00000    55.66114     4.69653
    15.40000    90.00000    34.34008     4.69651    90.00000    55.65992     4.69651
    15.50000    90.00000    34.34129     4.69649    90.00000    55.65871     4.69649
    15.60000    90.00000    34.34250     4.69647    90.00000    55.65750     4.69647
    15.70000    90.00000    34.34372     4.69645    90.00000    55.65628     4.69645
    15.80000    90.00000    34.34493     4.69643    90.00000    55.65507     4.69643
    15.90000    90.00000    34.34614     4.69641    90.00000    55.65386     4.69641
    16.00000    90.00000    34.34735     4.69639    90.00000    55.65265     4.69639
    16.10000    90.00000    34.34856     4.69637    90.00000    55.65144     4.69637
    16.20000    90.00000    34.34977     4.69635    90.00000    55.65023     4.69635
    16.30000    90.00000    34.35098     4.69633    90.00000    55.64902     4.69633
    16.40000    90.00000    34.35219     4.69631    90.00000    55.64781     4.69631
    16.50000    90.00000    34.35340     4.69629    90.00000    55.64660     4.69629
    16.60000    90.00000    34.35461     4.69627    90.00000    55.64539     4.69627
    16.70000    90.00000    34.35582     4.69625    90.00000    55.64418     4.69625
    16.80000    90.00000    34.35703     4.69623    90.00000    55.64297     4.69623
    16.90000    90.00000    34.35824     4.69621    90.00000    55.64176     4.69621
    17.00000    90.00000    34.35945     4.69618    90.00000    55.64055     4.69618
    17.10000    90.00000    34.36065     4.69616    90.00000    55.63935     4.69616
    17.20000    90.00000    34.36186     4.69614    90.00000    55.63814     4.69614
    17.30000    90.00000    34.36307     4.69612    90.00000    55.63693     4.69612
    17.40000    90.00000    34.36427     4.69610    90.00000    55.63573     4.69610
    17.50000    90.00000    34.36548     4.69608    90.00000    55.63452     4.69608
    17.60000    90.00000    34.36669     4.69606    90.00000    55.63331     4.69606
    17.70000    90.00000    34.36789     4.69604    90.00000    55.63211     4.69604
    17.80000    90.00000    34.36910     4.69602    90.00000    55.63090     4.69602
    17.90000    90.00000    34.37030     4.69600    90.00000    55.62970     4.69600
    18.00000    90.00000    34.37151     4.69598    90.00000    55.62849     4.69598
    18.10000    90.00000    34.37271     4.69596    90.00000    55.62729     4.69596
    18.20000    90.00000    34.37391     4.69594    90.00000    55.62609     4.69594
    18.30000    90.00000    34.37512     4.69592    90.00000    55.62488     4.69592
    18.40000    90.00000    34.37632     4.69590    90.00000    55.62368     4.69590
    18.50000    90.00000    34.37752     4.69588    90.00000    55.62248     4.69588
    18.60000    90.00000    34.37873     4.69586    90.00000    55.62127     4.69586
    18.70000    90.00000    34.37993     4.69584    90.00000    55.62007     4.69584
    18.80000    90.00000    34.38113     4.69582    90.00000    55.61887     4.69582
    18.90000    90.00000    34.38233     4.69580    90.00000    55.61767     4.69580
    19.00000    90.00000    34.38353     4.69578    90.00000    55.61647     4.69578
    19.10000    90.00000    34.38473     4.69576    90.00000    55.61527     4.69576
    19.20000    90.00000    34.38593     4.69574    90.00000    55.61407     4.69574
    19.30000    90.00000    34.38713     4.69572    90.00000    55.61287     4.69572
    19.40000    90.00000    34.38833     4.69570    90.00000    55.61167     4.69570
    19.50000    90.00000    34.38953     4.69568    90.00000    55.61047     4.69568
    19.60000    90.00000    34.39073     4.69566    90.00000    55.60927     4.69566
    19.70000    90.00000    34.39193     4.69564    90.00000    55.60807     4.69564
    19.80000    90.00000    34.39313     4.69562    90.00000    55.60687     4.69562
    19.90000    90.00000    34.39432     4.69560    90.00000    55.60568     4.69560
    20.00000    90.00000    34.39552     4.69558    90.00000    55.60448     4.69558
    20.10000    90.00000    34.39672     4.69556    90.00000    55.60328     4.69556
    20.20000    90.00000    34.39791     4.69554    90.00000    55.60209     4.69554
    20.30000    90.00000    34.39911     4.69552    90.00000    55.60089     4.69552
    20.40000    90.00000    34.40031     4.69549    90.00000    55.59969     4.69549
    20.50000    90.00000    34.40150     4.69547    90.00000    55.59850     4.69547
    20.60000    90.00000    34.40270     4.69545    90.00000    55.59730     4.69545
    20.70000    90.00000    34.40389     4.69543    90.00000    55.59611     4.69543
    20.80000    90.00000    34.40509     4.69541    90.00000    55.59491     4.69541
    20.90000    90.00000    34.40628     4.69539    90.00000    55.59372     4.69539
    21.00000    90.00000    34.40748     4.69537    90.00000    55.59252     4.69537
    21.10000    90.00000    34.40867     4.69535    90.00000    55.59133     4.69535
    21.20000    90.00000    34.40986     4.69533    90.00000    55.59014     4.69533
    21.30000    90.00000    34.41105     4.69531    90.00000    55.58895     4.69531
    21.40000    90.00000    34.41225     4.69529    90.00000    55.58775     4.69529
    21.50000    90.00000    34.41344     4.69527    90.00000    55.58656     4.69527
    21.60000    90.00000    34.41463     4.69525    90.00000    55.58537     4.69525
    21.70000    90.00000    34.41582     4.69523    90.00000    55.58418     4.69523
    21.80000    90.00000    34.41701     4.69521    90.00000    55.58299     4.69521
    21.90000    90.00000    34.41820     4.69519    90.00000    55.58180     4.69519
    22.00000    90.00000    34.41940     4.69517    90.00000    55.58060     4.69517
    22.10000    90.00000    34.42059     4.69515    90.00000    55.57941     4.69515
    22.20000    90.00000    34.42177     4.69513    90.00000    55.57823     4.69513
    22.30000    90.00000    34.42296     4.69511    90.00000    55.57704     4.69511
    22.40000    90.00000    34.42415     4.69509    90.00000    55.57585     4.69509
    22.50000    90.00000    34.42534     4.69507    90.00000    55.57466     4.69507
    22.60000    90.00000    34.42653     4.69505    90.00000    55.57347     4.69505
    22.70000    90.00000    34.42772     4.69503    90.00000    55.57228     4.69503
    22.80000    90.00000    34.42891     4.69501    90.00000    55.57109     4.69501
    22.90000    90.00000    34.43009     4.69499    90.00000    55.56991     4.69499
    23.00000    90.00000    34.43128     4.69497    90.00000    55.56872     4.69497
    23.10000    90.00000    34.43247     4.69494    90.00000    55.56753     4.69494
    23.20000    90.00000    34.43365     4.69492    90.00000    55.56635     4.69492
    23.30000    90.00000    34.43484     4.69490    90.00000    55.56516     4.69490
    23.40000    90.00000    34.43602     4.69488    90.00000    55.56398     4.69488
    23.50000    90.00000    34.43721     4.69486    90.00000    55.56279     4.69486
    23.60000    90.00000    34.43839     4.69484    90.00000    55.56161     4.69484
    23.70000    90.00000    34.43958     4.69482    90.00000    55.56042     4.69482
    23.80000    90.00000    34.44076     4.69480    90.00000    55.55924     4.69480
    23.90000    90.00000    34.44195     4.69478    90.00000    55.55805     4.69478
    24.00000    90.00000    34.44313     4.69476    90.00000    55.55687     4.69476
    24.10000    90.00000    34.44431     4.69474    90.00000    55.55569     4.69474
    24.20000    90.00000    34.44550     4.69472    90.00000    55.55450     4.69472
    24.30000    90.00000    34.44668     4.69470    90.00000    55.55332     4.69470
    24.40000    90.00000    34.44786     4.69468    90.00000    55.55214     4.69468
    24.50000    90.00000    34.44904     4.69466    90.00000    55.55096     4.69466
    24.60000    90.00000    34.45022     4.69464    90.00000    55.54978     4.69464
    24.70000    90.00000    34.45141     4.69462    90.00000    55.54859     4.69462
    24.80000    90.00000    34.45259     4.69460    90.00000    55.54741     4.69460
    24.90000    90.00000    34.45377     4.69458    90.00000    55.54623     4.69458
    25.00000    90.00000    34.45495     4.69456    90.00000    55.54505     4.69456
    25.10000    90.00000    34.45613     4.69454    90.00000    55.54387     4.69454
    25.20000    90.00000    34.45731     4.69452    90.00000    55.54269     4.69452
    25.30000    90.00000    34.45848     4.69450    90.00000    55.54152     4.69450
    25.40000    90.00000    34.45966     4.69447    90.00000    55.54034     4.69447
    25.50000    90.00000    34.46084     4.69445    90.00000    55.53916     4.69445
    25.60000    90.00000    34.46202     4.69443    90.00000    55.53798     4.69443
    25.70000    90.00000    34.46320     4.69441    90.00000    55.53680     4.69441
    25.80000    90.00000    34.46437     4.69439    90.00000    55.53563     4.69439
    25.90000    90.00000    34.46555     4.69437    90.00000    55.53445     4.69437
    26.00000    90.00000    34.46673     4.69435    90.00000    55.53327     4.69435
    26.10000    90.00000    34.46790     4.69433    90.00000    55.53210     4.69433
    26.20000    90.00000    34.46908     4.69431    90.00000    55.53092     4.69431
    26.30000    90.00000    34.47026     4.69429    90.00000    55.52974     4.69429
    26.40000    90.00000    34.47143     4.69427    90.00000    55.52857     4.69427
    26.50000    90.00000    34.47261     4.69425    90.00000    55.52739     4.69425
    26.60000    90.00000    34.47378     4.69423    90.00000    55.52622     4.69423
    26.70000    90.00000    34.47495     4.69421    90.00000    55.52505     4.69421
    26.80000    90.00000    34.47613     4.69419    90.00000    55.52387     4.69419
    26.90000    90.00000    34.47730     4.69417    90.00000    55.52270     4.69417
    27.00000    90.00000    34.47847     4.69415    90.00000    55.52153     4.69415
    27.10000    90.00000    34.47965     4.69413    90.00000    55.52035     4.69413
    27.20000    90.00000    34.48082     4.69411    90.00000    55.51918     4.69411
    27.30000    90.00000    34.48199     4.69409    90.00000    55.51801     4.69409
    27.40000    90.00000    34.48316     4.69407    90.00000    55.51684     4.69407
    27.50000    90.00000    34.48434     4.69404    90.00000    55.51566     4.69404
    27.60000    90.00000    34.48551     4.69402    90.00000    55.51449     4.69402
    27.70000    90.00000    34.48668     4.69400    90.00000    55.51332     4.69400
    27.80000    90.00000    34.48785     4.69398    90.00000    55.51215     4.69398
    27.90000    90.00000    34.48902     4.69396    90.00000    55.51098     4.69396
    28.00000    90.00000    34.49019     4.69394    90.00000    55.50981     4.69394
    28.10000    90.00000    34.49136     4.69392    90.00000    55.50864     4.69392
    28.20000    90.00000    34.49253     4.69390    90.00000    55.50747     4.69390
    28.30000    90.00000    34.49369     4.69388    90.00000    55.50631     4.69388
    28.40000    90.00000    34.49486     4.69386    90.00000    55.50514     4.69386
    28.50000    90.00000    34.49603     4.69384    90.00000    55.50397     4.69384
    28.60000    90.00000    34.49720     4.69382    90.00000    55.50280     4.69382
    28.70000    90.00000    34.49837     4.69380    90.00000    55.50163     4.69380
    28.80000    90.00000    34.49953     4.69378    90.00000    55.50047     4.69378
    28.90000    90.00000    34.50070     4.69376    90.00000    55.49930     4.69376
    29.00000    90.00000    34.50187     4.69374    90.00000    55.49813     4.69374
    29.10000    90.00000    34.50303     4.69372    90.00000    55.49697     4.69372
    29.20000    90.00000    34.50420     4.69370    90.00000    55.49580     4.69370
    29.30000    90.00000    34.50536     4.69367    90.00000    55.49464     4.69367
    29.40000    90.00000    34.50653     4.69365    90.00000    55.49347     4.69365
    29.50000    90.00000    34.50769     4.69363    90.00000    55.49231     4.69363
    29.60000    90.00000    34.50886     4.69361    90.00000    55.49114     4.69361
    29.70000    90.00000    34.51002     4.69359    90.00000    55.48998     4.69359
    29.80000    90.00000    34.51118     4.69357    90.00000    55.48882     4.69357
    29.90000    90.00000    34.51235     4.69355    90.00000    55.48765     4.69355
    30.00000    90.00000    34.51351     4.69353    90.00000    55.48649     4.69353
    30.10000    90.00000    34.51467     4.69351    90.00000    55.48533     4.69351
    30.20000    90.00000    34.51584     4.69349    90.00000    55.48416     4.69349
    30.30000    90.00000    34.51700     4.69347    90.00000    55.48300     4.69347
    30.40000    90.00000    34.51816     4.69345    90.00000    55.48184     4.69345
    30.50000    90.00000    34.51932     4.69343    90.00000    55.48068     4.69343
    30.60000    90.00000    34.52048     4.69341    90.00000    55.47952     4.69341
    30.70000    90.00000    34.52164     4.69339    90.00000    55.47836     4.69339
    30.80000    90.00000    34.52280     4.69337    90.00000    55.47720     4.69337
    30.90000    90.00000    34.52396     4.69335    90.00000    55.47604     4.69335
    31.00000    90.00000    34.52512     4.69333    90.00000    55.47488     4.69333
    31.10000    90.00000    34.52628     4.69330    90.00000    55.47372     4.69330
    31.20000    90.00000    34.52744     4.69328    90.00000    55.47256     4.69328
    31.30000    90.00000    34.52860     4.69326    90.00000    55.47140     4.69326
    31.40000    90.00000    34.52976     4.69324    90.00000    55.47024     4.69324
    31.50000    90.00000    34.53091     4.69322    90.00000    55.46909     4.69322
    31.60000    90.00000    34.53207     4.69320    90.00000    55.46793     4.69320
    31.70000    90.00000    34.53323     4.69318    90.00000    55.46677     4.69318
    31.80000    90.00000    34.53439     4.69316    90.00000    55.46561     4.69316
    31.90000    90.00000    34.53554     4.69314    90.00000    55.46446     4.69314
    32.00000    90.00000    34.53670     4.69312    90.00000    55.46330     4.69312
    32.10000    90.00000    34.53785     4.69310    90.00000    55.46215     4.69310
    32.20000    90.00000    34.53901     4.69308    90.00000    55.46099     4.69308
    32.30000    90.00000    34.54017     4.69306    90.00000    55.45983     4.69306
    32.40000    90.00000    34.54132     4.69304    90.00000    55.45868     4.69304
    32.50000    90.00000    34.54247     4.69302    90.00000    55.45753     4.69302
    32.60000    90.00000    34.54363     4.69300    90.00000    55.45637     4.69300
    32.70000    90.00000    34.54478     4.69297    90.00000    55.45522     4.69297
    32.80000    90.00000    34.54594     4.69295    90.00000    55.45406     4.69295
    32.90000    90.00000    34.54709     4.69293    90.00000    55.45291     4.69293
    33.00000    90.00000    34.54824     4.69291    90.00000    55.45176     4.69291
    33.10000    90.00000    34.54939     4.69289    90.00000    55.45061     4.69289
    33.20000    90.00000    34.55055     4.69287    90.00000    55.44945     4.69287
    33.30000    90.00000    34.55170     4.69285    90.00000    55.44830     4.69285
    33.40000    90.00000    34.55285     4.69283    90.00000    55.44715     4.69283
    33.50000    90.00000    34.55400     4.69281    90.00000    55.44600     4.69281
    33.60000    90.00000    34.55515     4.69279    90.00000    55.44485     4.69279
    33.70000    90.00000    34.55630     4.69277    90.00000    55.44370     4.69277
    33.80000    90.00000    34.55745     4.69275    90.00000    55.44255     4.69275
    33.90000    90.00000    34.55860     4.69273    90.00000    55.44140     4.69273
    34.00000    90.00000    34.55975     4.69271    90.00000    55.44025     4.69271
    34.10000    90.00000    34.56090     4.69269    90.00000    55.43910     4.69269
    34.20000    90.00000    34.56205     4.69266    90.00000    55.43795     4.69266
    34.30000    90.00000    34.56320     4.69264    90.00000    55.43680     4.69264
    34.40000    90.00000    34.56435     4.69262    90.00000    55.43565     4.69262
    34.50000    90.00000    34.56549     4.69260    90.00000    55.43451     4.69260
    34.60000    90.00000    34.56664     4.69258    90.00000    55.43336     4.69258
    34.70000    90.00000    34.56779     4.69256    90.00000    55.43221     4.69256
    34.80000    90.00000    34.56894     4.69254    90.00000    55.43106     4.69254
    34.90000    90.00000    34.57008     4.69252    90.00000    55.42992     4.69252
    35.00000    90.00000    34.57123     4.69250    90.00000    55.42877     4.69250
    35.10000    90.00000    34.57237     4.69248    90.00000    55.42763     4.69248
    35.20000    90.00000    34.57352     4.69246    90.00000    55.42648     4.69246
    35.30000    90.00000    34.57466     4.69244    90.00000    55.42534     4.69244
    35.40000    90.00000    34.57581     4.69242    90.00000    55.42419     4.69242
    35.50000    90.00000    34.57695     4.69240    90.00000    55.42305     4.69240
    35.60000    90.00000    34.57810     4.69238    90.00000    55.42190     4.69238
    35.70000    90.00000    34.57924     4.69235    90.00000    55.42076     4.69235
    35.80000    90.00000    34.58039     4.69233    90.00000    55.41961     4.69233
    35.90000    90.00000    34.58153     4.69231    90.00000    55.41847     4.69231
    36.00000    90.00000    34.58267     4.69229    90.00000    55.41733     4.69229
    36.10000    90.00000    34.58381     4.69227    90.00000    55.41619     4.69227
    36.20000    90.00000    34.58496     4.69225    90.00000    55.41504     4.69225
    36.30000    90.00000    34.58610     4.69223    90.00000    55.41390     4.69223
    36.40000    90.00000    34.58724     4.69221    90.00000    55.41276     4.69221
    36.50000    90.00000    34.58838     4.69219    90.00000    55.41162     4.69219
    36.60000    90.00000    34.58952     4.69217    90.00000    55.41048     4.69217
    36.70000    90.00000    34.59066     4.69215    90.00000    55.40934     4.69215
    36.80000    90.00000    34.59180     4.69213    90.00000    55.40820     4.69213
    36.90000    90.00000    34.59294     4.69211    90.00000    55.40706     4.69211
    37.00000    90.00000    34.59408     4.69209    90.00000    55.40592     4.69209
    37.10000    90.00000    34.59522     4.69206    90.00000    55.40478     4.69206
    37.20000    90.00000    34.59636     4.69204    90.00000    55.40364     4.69204
    37.30000    90.00000    34.59750     4.69202    90.00000    55.40250     4.69202
    37.40000    90.00000    34.59864     4.69200    90.00000    55.40136     4.69200
    37.50000    90.00000    34.59977     4.69198    90.00000    55.40023     4.69198
    37.60000    90.00000    34.60091     4.69196    90.00000    55.39909     4.69196
    37.70000    90.00000    34.60205     4.69194    90.00000    55.39795     4.69194
    37.80000    90.00000    34.60319     4.69192    90.00000    55.39681     4.69192
    37.90000    90.00000    34.60432     4.69190    90.00000    55.39568     4.69190
    38.00000    90.00000    34.60546     4.69188    90.00000    55.39454     4.69188
    38.10000    90.00000    34.60659     4.69186    90.00000    55.39341     4.69186
    38.20000    90.00000    34.60773     4.69184    90.00000    55.39227     4.69184
    38.30000    90.00000    34.60887     4.69182    90.00000    55.39113     4.69182
    38.40000    90.00000    34.61000     4.69179    90.00000    55.39000     4.69179
    38.50000    90.00000    34.61113     4.69177    90.00000    55.38887     4.69177
    38.60000    90.00000    34.61227     4.69175    90.00000    55.38773     4.69175
    38.70000    90.00000    34.61340     4.69173    90.00000    55.38660     4.69173
    38.80000    90.00000    34.61454     4.69171    90.00000    55.38546     4.69171
    38.90000    90.00000    34.61567     4.69169    90.00000    55.38433     4.69169
    39.00000    90.00000    34.61680     4.69167    90.00000    55.38320     4.69167
    39.10000    90.00000    34.61794     4.69165    90.00000    55.38206     4.69165
    39.20000    90.00000    34.61907     4.69163    90.00000    55.38093     4.69163
    39.30000    90.00000    34.62020     4.69161    90.00000    55.37980     4.69161
    39.40000    90.00000    34.62133     4.69159    90.00000    55.37867     4.69159
    39.50000    90.00000    34.62246     4.69157    90.00000    55.37754     4.69157
    39.60000    90.00000    34.62359     4.69154    90.00000    55.37641     4.69154
    39.70000    90.00000    34.62472     4.69152    90.00000    55.37528     4.69152
    39.80000    90.00000    34.62585     4.69150    90.00000    55.37415     4.69150
    39.90000    90.00000    34.62698     4.69148    90.00000    55.37302     4.69148
    40.00000    90.00000    34.62811     4.69146    90.00000    55.37189     4.69146
