 # applied field (T), theta (degree), phi (degree), abs for RE 1-2
     0.00000   178.18537   135.00000     4.40135   178.18537    45.00000     4.40135
     0.10000   177.92949   141.41148     4.40141   178.41145    53.37179     4.40129
     0.20000   177.69392   145.72999     4.40144   178.57069    62.49197     4.40123
     0.30000   177.40593   149.74996     4.40148   178.69944    75.55071     4.40115
     0.40000   177.10779   152.95378     4.40150   178.74883    90.51714     4.40105
     0.50000   176.80233   155.55211     4.40152   178.70958   105.61294     4.40095
     0.60000   176.53611   157.41126     4.40152   178.61050   117.21704     4.40086
     0.70000   176.22165   159.24694     4.40152   178.43444   128.37617     4.40073
     0.80000   175.90387   160.79927     4.40150   178.21160   137.03116     4.40060
     0.90000   175.58346   162.12737     4.40148   177.95708   143.65899     4.40046
     1.00000   175.30710   163.12103     4.40145   177.72158   148.11731     4.40033
     1.10000   174.98305   164.14181     4.40141   177.43270   152.25881     4.40017
     1.20000   174.65749   165.03866     4.40136   177.13283   155.55237     4.40000
     1.30000   174.33064   165.83252     4.40130   176.82496   158.21808     4.39982
     1.40000   174.00268   166.53992     4.40123   176.51108   160.41120     4.39963
     1.50000   173.72075   167.08750     4.40116   176.23828   161.99999     4.39946
     1.60000   173.39103   167.66750     4.40107   175.91653   163.58536     4.39925
     1.70000   173.06049   168.19255     4.40097   175.59169   164.94017     4.39903
     1.80000   172.72919   168.67003     4.40086   175.26426   166.11019     4.39879
     1.90000   172.39719   169.10608     4.40075   174.93464   167.13014     4.39855
     2.00000   172.06452   169.50582     4.40062   174.60310   168.02670     4.39830
     2.10000   171.73122   169.87359     4.40049   174.26986   168.82073     4.39804
     2.20000   171.39729   170.21305     4.40034   173.93510   169.52868     4.39777
     2.30000   171.06276   170.52733     4.40019   173.59892   170.16374     4.39749
     2.40000   170.72765   170.81912     4.40003   173.26144   170.73655     4.39720
     2.50000   170.39194   171.09073     4.39986   172.92272   171.25581     4.39690
     2.60000   170.05566   171.34419     4.39968   172.58283   171.72869     4.39659
     2.70000   169.71881   171.58124     4.39949   172.24180   172.16114     4.39627
     2.80000   169.38137   171.80342     4.39930   171.89967   172.55815     4.39594
     2.90000   169.04335   172.01209     4.39909   171.55646   172.92393     4.39560
     3.00000   168.65636   172.23557     4.39885   171.16297   173.30814     4.39520
     3.10000   168.31707   172.41911     4.39863   170.81750   173.61837     4.39484
     3.20000   167.97719   172.59246     4.39839   170.47098   173.90696     4.39447
     3.30000   167.58804   172.77915     4.39812   170.07374   174.21299     4.39403
     3.40000   167.24684   172.93331     4.39787   169.72498   174.46233     4.39364
     3.50000   166.90502   173.07957     4.39762   169.37517   174.69609     4.39324
     3.60000   166.51361   173.23785     4.39732   168.97414   174.94589     4.39278
     3.70000   166.17041   173.36912     4.39705   168.62205   175.15092     4.39236
     3.80000   165.77740   173.51158     4.39673   168.21839   175.37102     4.39187
     3.90000   165.38352   173.64655     4.39640   167.81330   175.57745     4.39137
     4.00000   165.03810   173.75895     4.39610   167.45761   175.74798     4.39092
     4.10000   164.64252   173.88138     4.39576   167.04979   175.93214     4.39040
     4.20000   164.24602   173.99782     4.39541   166.64047   176.10591     4.38987
     4.30000   163.84857   174.10871     4.39504   166.22965   176.27021     4.38933
     4.40000   163.45016   174.21443     4.39467   165.81728   176.42582     4.38877
     4.50000   163.05077   174.31533     4.39429   165.40335   176.57345     4.38821
     4.60000   162.60032   174.42349     4.39386   164.93584   176.73072     4.38757
     4.70000   162.19880   174.51519     4.39346   164.51850   176.86344     4.38698
     4.80000   161.79625   174.60298     4.39306   164.09951   176.98996     4.38639
     4.90000   161.34218   174.69740     4.39260   163.62622   177.12540     4.38571
     5.00000   160.88676   174.78750     4.39213   163.15079   177.25417     4.38502
     5.10000   160.48076   174.86421     4.39170   162.72627   177.36352     4.38440
     5.20000   160.02275   174.94694     4.39122   162.24667   177.48109     4.38369
     5.30000   159.56334   175.02613     4.39073   161.76481   177.59336     4.38297
     5.40000   159.05126   175.11024     4.39017   161.22679   177.71233     4.38216
     5.50000   158.58882   175.18266     4.38967   160.74006   177.81468     4.38143
     5.60000   158.07334   175.25974     4.38910   160.19655   177.92345     4.38060
     5.70000   157.55603   175.33347     4.38852   159.65008   178.02745     4.37976
     5.80000   157.03688   175.40408     4.38794   159.10061   178.12702     4.37892
     5.90000   156.51588   175.47175     4.38735   158.54810   178.22249     4.37806
     6.00000   155.94064   175.54301     4.38670   157.93687   178.32308     4.37712
     6.10000   155.36312   175.61118     4.38604   157.32187   178.41941     4.37617
     6.20000   154.78329   175.67644     4.38538   156.70307   178.51180     4.37521
     6.30000   154.14815   175.74455     4.38465   156.02372   178.60839     4.37416
     6.40000   153.51023   175.80965     4.38392   155.33976   178.70098     4.37311
     6.50000   152.86952   175.87195     4.38319   154.65116   178.78986     4.37206
     6.60000   152.11860   175.94134     4.38234   153.84206   178.88915     4.37083
     6.70000   151.36388   176.00743     4.38149   153.02661   178.98416     4.36961
     6.80000   150.60537   176.07047     4.38064   152.20479   179.07523     4.36840
     6.90000   149.73397   176.13907     4.37968   151.25794   179.17481     4.36702
     7.00000   148.80280   176.20825     4.37866   150.24296   179.27584     4.36559
     7.10000    91.49479   178.09571     4.36003    88.50521   181.90429     4.36003
     7.20000    91.49466   178.09585     4.35999    88.50534   181.90415     4.35999
     7.30000    91.49454   178.09600     4.35994    88.50546   181.90400     4.35994
     7.40000    91.49441   178.09614     4.35990    88.50559   181.90386     4.35990
     7.50000    91.49428   178.09629     4.35986    88.50572   181.90371     4.35986
     7.60000    91.49416   178.09643     4.35981    88.50584   181.90357     4.35981
     7.70000    91.49403   178.09658     4.35977    88.50597   181.90342     4.35977
     7.80000    91.49390   178.09673     4.35973    88.50610   181.90327     4.35973
     7.90000    91.49378   178.09687     4.35968    88.50622   181.90313     4.35968
     8.00000    91.49365   178.09702     4.35964    88.50635   181.90298     4.35964
     8.10000    91.49352   178.09716     4.35960    88.50648   181.90284     4.35960
     8.20000    91.49340   178.09731     4.35955    88.50660   181.90269     4.35955
     8.30000    91.49327   178.09745     4.35951    88.50673   181.90255     4.35951
     8.40000    91.49314   178.09760     4.35946    88.50686   181.90240     4.35946
     8.50000    91.49302   178.09774     4.35942    88.50698   181.90226     4.35942
     8.60000    91.49289   178.09789     4.35938    88.50711   181.90211     4.35938
     8.70000    91.49276   178.09803     4.35933    88.50724   181.90197     4.35933
     8.80000    91.49264   178.09818     4.35929    88.50736   181.90182     4.35929
     8.90000    91.49251   178.09832     4.35925    88.50749   181.90168     4.35925
     9.00000    91.49239   178.09846     4.35920    88.50761   181.90154     4.35920
     9.10000    91.49226   178.09861     4.35916    88.50774   181.90139     4.35916
     9.20000    91.49214   178.09875     4.35912    88.50786   181.90125     4.35912
     9.30000    91.49201   178.09890     4.35907    88.50799   181.90110     4.35907
     9.40000    91.49188   178.09904     4.35903    88.50812   181.90096     4.35903
     9.50000    91.49176   178.09919     4.35899    88.50824   181.90081     4.35899
     9.60000    91.49163   178.09933     4.35894    88.50837   181.90067     4.35894
     9.70000    91.49151   178.09948     4.35890    88.50849   181.90052     4.35890
     9.80000    91.49138   178.09962     4.35885    88.50862   181.90038     4.35885
     9.90000    91.49126   178.09976     4.35881    88.50874   181.90024     4.35881
    10.00000    91.49113   178.09991     4.35877    88.50887   181.90009     4.35877
    10.10000    91.49101   178.10005     4.35872    88.50899   181.89995     4.35872
    10.20000    91.49088   178.10020     4.35868    88.50912   181.89980     4.35868
    10.30000    91.49075   178.10034     4.35864    88.50925   181.89966     4.35864
    10.40000    91.49063   178.10048     4.35859    88.50937   181.89952     4.35859
    10.50000    91.49050   178.10063     4.35855    88.50950   181.89937     4.35855
    10.60000    91.49038   178.10077     4.35851    88.50962   181.89923     4.35851
    10.70000    91.49025   178.10091     4.35846    88.50975   181.89909     4.35846
    10.80000    91.49013   178.10106     4.35842    88.50987   181.89894     4.35842
    10.90000    91.49000   178.10120     4.35837    88.51000   181.89880     4.35837
    11.00000    91.48988   178.10134     4.35833    88.51012   181.89866     4.35833
    11.10000    91.48976   178.10149     4.35829    88.51024   181.89851     4.35829
    11.20000    91.48963   178.10163     4.35824    88.51037   181.89837     4.35824
    11.30000    91.48951   178.10177     4.35820    88.51049   181.89823     4.35820
    11.40000    91.48938   178.10192     4.35816    88.51062   181.89808     4.35816
    11.50000    91.48926   178.10206     4.35811    88.51074   181.89794     4.35811
    11.60000    91.48913   178.10220     4.35807    88.51087   181.89780     4.35807
    11.70000    91.48901   178.10234     4.35803    88.51099   181.89766     4.35803
    11.80000    91.48888   178.10249     4.35798    88.51112   181.89751     4.35798
    11.90000    91.48876   178.10263     4.35794    88.51124   181.89737     4.35794
    12.00000    91.48864   178.10277     4.35789    88.51136   181.89723     4.35789
    12.10000    91.48851   178.10292     4.35785    88.51149   181.89708     4.35785
    12.20000    91.48839   178.10306     4.35781    88.51161   181.89694     4.35781
    12.30000    91.48826   178.10320     4.35776    88.51174   181.89680     4.35776
    12.40000    91.48814   178.10334     4.35772    88.51186   181.89666     4.35772
    12.50000    91.48802   178.10348     4.35768    88.51198   181.89652     4.35768
    12.60000    91.48789   178.10363     4.35763    88.51211   181.89637     4.35763
    12.70000    91.48777   178.10377     4.35759    88.51223   181.89623     4.35759
    12.80000    91.48764   178.10391     4.35754    88.51236   181.89609     4.35754
    12.90000    91.48752   178.10405     4.35750    88.51248   181.89595     4.35750
    13.00000    91.48740   178.10420     4.35746    88.51260   181.89580     4.35746
    13.10000    91.48727   178.10434     4.35741    88.51273   181.89566     4.35741
    13.20000    91.48715   178.10448     4.35737    88.51285   181.89552     4.35737
    13.30000    91.48703   178.10462     4.35732    88.51297   181.89538     4.35732
    13.40000    91.48690   178.10476     4.35728    88.51310   181.89524     4.35728
    13.50000    91.48678   178.10490     4.35724    88.51322   181.89510     4.35724
    13.60000    91.48666   178.10505     4.35719    88.51334   181.89495     4.35719
    13.70000    91.48653   178.10519     4.35715    88.51347   181.89481     4.35715
    13.80000    91.48641   178.10533     4.35711    88.51359   181.89467     4.35711
    13.90000    91.48629   178.10547     4.35706    88.51371   181.89453     4.35706
    14.00000    91.48616   178.10561     4.35702    88.51384   181.89439     4.35702
    14.10000    91.48604   178.10575     4.35697    88.51396   181.89425     4.35697
    14.20000    91.48592   178.10589     4.35693    88.51408   181.89411     4.35693
    14.30000    91.48580   178.10603     4.35689    88.51420   181.89397     4.35689
    14.40000    91.48567   178.10618     4.35684    88.51433   181.89382     4.35684
    14.50000    91.48555   178.10632     4.35680    88.51445   181.89368     4.35680
    14.60000    91.48543   178.10646     4.35675    88.51457   181.89354     4.35675
    14.70000    91.48531   178.10660     4.35671    88.51469   181.89340     4.35671
    14.80000    91.48518   178.10674     4.35667    88.51482   181.89326     4.35667
    14.90000    91.48506   178.10688     4.35662    88.51494   181.89312     4.35662
    15.00000    91.48494   178.10702     4.35658    88.51506   181.89298     4.35658
    15.10000    91.48482   178.10716     4.35654    88.51518   181.89284     4.35654
    15.20000    91.48469   178.10730     4.35649    88.51531   181.89270     4.35649
    15.30000    91.48457   178.10744     4.35645    88.51543   181.89256     4.35645
    15.40000    91.48445   178.10758     4.35640    88.51555   181.89242     4.35640
    15.50000    91.48433   178.10772     4.35636    88.51567   181.89228     4.35636
    15.60000    91.48420   178.10786     4.35632    88.51580   181.89214     4.35632
    15.70000    91.48408   178.10800     4.35627    88.51592   181.89200     4.35627
    15.80000    91.48396   178.10814     4.35623    88.51604   181.89186     4.35623
    15.90000    91.48384   178.10828     4.35618    88.51616   181.89172     4.35618
    16.00000    91.48372   178.10842     4.35614    88.51628   181.89158     4.35614
    16.10000    91.48360   178.10856     4.35610    88.51640   181.89144     4.35610
    16.20000    91.48347   178.10870     4.35605    88.51653   181.89130     4.35605
    16.30000    91.48335   178.10884     4.35601    88.51665   181.89116     4.35601
    16.40000    91.48323   178.10898     4.35596    88.51677   181.89102     4.35596
    16.50000    91.48311   178.10912     4.35592    88.51689   181.89088     4.35592
    16.60000    91.48299   178.10926     4.35588    88.51701   181.89074     4.35588
    16.70000    91.48287   178.10940     4.35583    88.51713   181.89060     4.35583
    16.80000    91.48274   178.10954     4.35579    88.51726   181.89046     4.35579
    16.90000    91.48262   178.10968     4.35574    88.51738   181.89032     4.35574
    17.00000    91.48250   178.10982     4.35570    88.51750   181.89018     4.35570
    17.10000    91.48238   178.10996     4.35566    88.51762   181.89004     4.35566
    17.20000    91.48226   178.11010     4.35561    88.51774   181.88990     4.35561
    17.30000    91.48214   178.11024     4.35557    88.51786   181.88976     4.35557
    17.40000    91.48202   178.11038     4.35552    88.51798   181.88962     4.35552
    17.50000    91.48190   178.11052     4.35548    88.51810   181.88948     4.35548
    17.60000    91.48178   178.11065     4.35544    88.51822   181.88935     4.35544
    17.70000    91.48166   178.11079     4.35539    88.51834   181.88921     4.35539
    17.80000    91.48153   178.11093     4.35535    88.51847   181.88907     4.35535
    17.90000    91.48141   178.11107     4.35530    88.51859   181.88893     4.35530
    18.00000    91.48129   178.11121     4.35526    88.51871   181.88879     4.35526
    18.10000    91.48117   178.11135     4.35522    88.51883   181.88865     4.35522
    18.20000    91.48105   178.11149     4.35517    88.51895   181.88851     4.35517
    18.30000    91.48093   178.11163     4.35513    88.51907   181.88837     4.35513
    18.40000    91.48081   178.11176     4.35508    88.51919   181.88824     4.35508
    18.50000    91.48069   178.11190     4.35504    88.51931   181.88810     4.35504
    18.60000    91.48057   178.11204     4.35500    88.51943   181.88796     4.35500
    18.70000    91.48045   178.11218     4.35495    88.51955   181.88782     4.35495
    18.80000    91.48033   178.11232     4.35491    88.51967   181.88768     4.35491
    18.90000    91.48021   178.11246     4.35486    88.51979   181.88754     4.35486
    19.00000    91.48009   178.11259     4.35482    88.51991   181.88741     4.35482
    19.10000    91.47997   178.11273     4.35477    88.52003   181.88727     4.35477
    19.20000    91.47985   178.11287     4.35473    88.52015   181.88713     4.35473
    19.30000    91.47973   178.11301     4.35469    88.52027   181.88699     4.35469
    19.40000    91.47961   178.11314     4.35464    88.52039   181.88686     4.35464
    19.50000    91.47949   178.11328     4.35460    88.52051   181.88672     4.35460
    19.60000    91.47937   178.11342     4.35455    88.52063   181.88658     4.35455
    19.70000    91.47925   178.11356     4.35451    88.52075   181.88644     4.35451
    19.80000    91.47913   178.11370     4.35447    88.52087   181.88630     4.35447
    19.90000    91.47901   178.11383     4.35442    88.52099   181.88617     4.35442
    20.00000    91.47889   178.11397     4.35438    88.52111   181.88603     4.35438
    20.10000    91.47877   178.11411     4.35433    88.52123   181.88589     4.35433
    20.20000    91.47865   178.11424     4.35429    88.52135   181.88576     4.35429
    20.30000    91.47853   178.11438     4.35424    88.52147   181.88562     4.35424
    20.40000    91.47841   178.11452     4.35420    88.52159   181.88548     4.35420
    20.50000    91.47830   178.11466     4.35416    88.52170   181.88534     4.35416
    20.60000    91.47818   178.11479     4.35411    88.52182   181.88521     4.35411
    20.70000    91.47806   178.11493     4.35407    88.52194   181.88507     4.35407
    20.80000    91.47794   178.11507     4.35402    88.52206   181.88493     4.35402
    20.90000    91.47782   178.11520     4.35398    88.52218   181.88480     4.35398
    21.00000    91.47770   178.11534     4.35393    88.52230   181.88466     4.35393
    21.10000    91.47758   178.11548     4.35389    88.52242   181.88452     4.35389
    21.20000    91.47746   178.11561     4.35385    88.52254   181.88439     4.35385
    21.30000    91.47734   178.11575     4.35380    88.52266   181.88425     4.35380
    21.40000    91.47723   178.11589     4.35376    88.52277   181.88411     4.35376
    21.50000    91.47711   178.11602     4.35371    88.52289   181.88398     4.35371
    21.60000    91.47699   178.11616     4.35367    88.52301   181.88384     4.35367
    21.70000    91.47687   178.11630     4.35363    88.52313   181.88370     4.35363
    21.80000    91.47675   178.11643     4.35358    88.52325   181.88357     4.35358
    21.90000    91.47663   178.11657     4.35354    88.52337   181.88343     4.35354
    22.00000    91.47651   178.11670     4.35349    88.52349   181.88330     4.35349
    22.10000    91.47640   178.11684     4.35345    88.52360   181.88316     4.35345
    22.20000    91.47628   178.11698     4.35340    88.52372   181.88302     4.35340
    22.30000    91.47616   178.11711     4.35336    88.52384   181.88289     4.35336
    22.40000    91.47604   178.11725     4.35332    88.52396   181.88275     4.35332
    22.50000    91.47592   178.11738     4.35327    88.52408   181.88262     4.35327
    22.60000    91.47581   178.11752     4.35323    88.52419   181.88248     4.35323
    22.70000    91.47569   178.11766     4.35318    88.52431   181.88234     4.35318
    22.80000    91.47557   178.11779     4.35314    88.52443   181.88221     4.35314
    22.90000    91.47545   178.11793     4.35309    88.52455   181.88207     4.35309
    23.00000    91.47533   178.11806     4.35305    88.52467   181.88194     4.35305
    23.10000    91.47522   178.11820     4.35300    88.52478   181.88180     4.35300
    23.20000    91.47510   178.11833     4.35296    88.52490   181.88167     4.35296
    23.30000    91.47498   178.11847     4.35292    88.52502   181.88153     4.35292
    23.40000    91.47486   178.11860     4.35287    88.52514   181.88140     4.35287
    23.50000    91.47475   178.11874     4.35283    88.52525   181.88126     4.35283
    23.60000    91.47463   178.11887     4.35278    88.52537   181.88113     4.35278
    23.70000    91.47451   178.11901     4.35274    88.52549   181.88099     4.35274
    23.80000    91.47439   178.11914     4.35269    88.52561   181.88086     4.35269
    23.90000    91.47428   178.11928     4.35265    88.52572   181.88072     4.35265
    24.00000    91.47416   178.11941     4.35261    88.52584   181.88059     4.35261
    24.10000    91.47404   178.11955     4.35256    88.52596   181.88045     4.35256
    24.20000    91.47392   178.11968     4.35252    88.52608   181.88032     4.35252
    24.30000    91.47381   178.11982     4.35247    88.52619   181.88018     4.35247
    24.40000    91.47369   178.11995     4.35243    88.52631   181.88005     4.35243
    24.50000    91.47357   178.12009     4.35238    88.52643   181.87991     4.35238
    24.60000    91.47346   178.12022     4.35234    88.52654   181.87978     4.35234
    24.70000    91.47334   178.12036     4.35229    88.52666   181.87964     4.35229
    24.80000    91.47322   178.12049     4.35225    88.52678   181.87951     4.35225
    24.90000    91.47311   178.12062     4.35221    88.52689   181.87938     4.35221
    25.00000    91.47299   178.12076     4.35216    88.52701   181.87924     4.35216
    25.10000    91.47287   178.12089     4.35212    88.52713   181.87911     4.35212
    25.20000    91.47276   178.12103     4.35207    88.52724   181.87897     4.35207
    25.30000    91.47264   178.12116     4.35203    88.52736   181.87884     4.35203
    25.40000    91.47252   178.12130     4.35198    88.52748   181.87870     4.35198
    25.50000    91.47241   178.12143     4.35194    88.52759   181.87857     4.35194
    25.60000    91.47229   178.12156     4.35189    88.52771   181.87844     4.35189
    25.70000    91.47217   178.12170     4.35185    88.52783   181.87830     4.35185
    25.80000    91.47206   178.12183     4.35181    88.52794   181.87817     4.35181
    25.90000    91.47194   178.12196     4.35176    88.52806   181.87804     4.35176
    26.00000    91.47183   178.12210     4.35172    88.52817   181.87790     4.35172
    26.10000    91.47171   178.12223     4.35167    88.52829   181.87777     4.35167
    26.20000    91.47159   178.12236     4.35163    88.52841   181.87764     4.35163
    26.30000    91.47148   178.12250     4.35158    88.52852   181.87750     4.35158
    26.40000    91.47136   178.12263     4.35154    88.52864   181.87737     4.35154
    26.50000    91.47125   178.12276     4.35149    88.52875   181.87724     4.35149
    26.60000    91.47113   178.12290     4.35145    88.52887   181.87710     4.35145
    26.70000    91.47101   178.12303     4.35140    88.52899   181.87697     4.35140
    26.80000    91.47090   178.12316     4.35136    88.52910   181.87684     4.35136
    26.90000    91.47078   178.12330     4.35132    88.52922   181.87670     4.35132
    27.00000    91.47067   178.12343     4.35127    88.52933   181.87657     4.35127
    27.10000    91.47055   178.12356     4.35123    88.52945   181.87644     4.35123
    27.20000    91.47044   178.12370     4.35118    88.52956   181.87630     4.35118
    27.30000    91.47032   178.12383     4.35114    88.52968   181.87617     4.35114
    27.40000    91.47021   178.12396     4.35109    88.52979   181.87604     4.35109
    27.50000    91.47009   178.12409     4.35105    88.52991   181.87591     4.35105
    27.60000    91.46998   178.12423     4.35100    88.53002   181.87577     4.35100
    27.70000    91.46986   178.12436     4.35096    88.53014   181.87564     4.35096
    27.80000    91.46975   178.12449     4.35091    88.53025   181.87551     4.35091
    27.90000    91.46963   178.12462     4.35087    88.53037   181.87538     4.35087
    28.00000    91.46952   178.12476     4.35082    88.53048   181.87524     4.35082
    28.10000    91.46940   178.12489     4.35078    88.53060   181.87511     4.35078
    28.20000    91.46929   178.12502     4.35074    88.53071   181.87498     4.35074
    28.30000    91.46917   178.12515     4.35069    88.53083   181.87485     4.35069
    28.40000    91.46906   178.12528     4.35065    88.53094   181.87472     4.35065
    28.50000    91.46894   178.12542     4.35060    88.53106   181.87458     4.35060
    28.60000    91.46883   178.12555     4.35056    88.53117   181.87445     4.35056
    28.70000    91.46871   178.12568     4.35051    88.53129   181.87432     4.35051
    28.80000    91.46860   178.12581     4.35047    88.53140   181.87419     4.35047
    28.90000    91.46848   178.12594     4.35042    88.53152   181.87406     4.35042
    29.00000    91.46837   178.12608     4.35038    88.53163   181.87392     4.35038
    29.10000    91.46825   178.12621     4.35033    88.53175   181.87379     4.35033
    29.20000    91.46814   178.12634     4.35029    88.53186   181.87366     4.35029
    29.30000    91.46803   178.12647     4.35024    88.53197   181.87353     4.35024
    29.40000    91.46791   178.12660     4.35020    88.53209   181.87340     4.35020
    29.50000    91.46780   178.12673     4.35015    88.53220   181.87327     4.35015
    29.60000    91.46768   178.12686     4.35011    88.53232   181.87314     4.35011
    29.70000    91.46757   178.12700     4.35006    88.53243   181.87300     4.35006
    29.80000    91.46746   178.12713     4.35002    88.53254   181.87287     4.35002
    29.90000    91.46734   178.12726     4.34998    88.53266   181.87274     4.34998
    30.00000    91.46723   178.12739     4.34993    88.53277   181.87261     4.34993
    30.10000    91.46711   178.12752     4.34989    88.53289   181.87248     4.34989
    30.20000    91.46700   178.12765     4.34984    88.53300   181.87235     4.34984
    30.30000    91.46689   178.12778     4.34980    88.53311   181.87222     4.34980
    30.40000    91.46677   178.12791     4.34975    88.53323   181.87209     4.34975
    30.50000    91.46666   178.12804     4.34971    88.53334   181.87196     4.34971
    30.60000    91.46655   178.12817     4.34966    88.53345   181.87183     4.34966
    30.70000    91.46643   178.12831     4.34962    88.53357   181.87169     4.34962
    30.80000    91.46632   178.12844     4.34957    88.53368   181.87156     4.34957
    30.90000    91.46621   178.12857     4.34953    88.53379   181.87143     4.34953
    31.00000    91.46609   178.12870     4.34948    88.53391   181.87130     4.34948
    31.10000    91.46598   178.12883     4.34944    88.53402   181.87117     4.34944
    31.20000    91.46587   178.12896     4.34939    88.53413   181.87104     4.34939
    31.30000    91.46575   178.12909     4.34935    88.53425   181.87091     4.34935
    31.40000    91.46564   178.12922     4.34930    88.53436   181.87078     4.34930
    31.50000    91.46553   178.12935     4.34926    88.53447   181.87065     4.34926
    31.60000    91.46541   178.12948     4.34921    88.53459   181.87052     4.34921
    31.70000    91.46530   178.12961     4.34917    88.53470   181.87039     4.34917
    31.80000    91.46519   178.12974     4.34912    88.53481   181.87026     4.34912
    31.90000    91.46507   178.12987     4.34908    88.53493   181.87013     4.34908
    32.00000    91.46496   178.13000     4.34903    88.53504   181.87000     4.34903
    32.10000    91.46485   178.13013     4.34899    88.53515   181.86987     4.34899
    32.20000    91.46474   178.13026     4.34894    88.53526   181.86974     4.34894
    32.30000    91.46462   178.13039     4.34890    88.53538   181.86961     4.34890
    32.40000    91.46451   178.13052     4.34885    88.53549   181.86948     4.34885
    32.50000    91.46440   178.13065     4.34881    88.53560   181.86935     4.34881
    32.60000    91.46429   178.13078     4.34877    88.53571   181.86922     4.34877
    32.70000    91.46417   178.13091     4.34872    88.53583   181.86909     4.34872
    32.80000    91.46406   178.13104     4.34868    88.53594   181.86896     4.34868
    32.90000    91.46395   178.13116     4.34863    88.53605   181.86884     4.34863
    33.00000    91.46384   178.13129     4.34859    88.53616   181.86871     4.34859
    33.10000    91.46373   178.13142     4.34854    88.53627   181.86858     4.34854
    33.20000    91.46361   178.13155     4.34850    88.53639   181.86845     4.34850
    33.30000    91.46350   178.13168     4.34845    88.53650   181.86832     4.34845
    33.40000    91.46339   178.13181     4.34841    88.53661   181.86819     4.34841
    33.50000    91.46328   178.13194     4.34836    88.53672   181.86806     4.34836
    33.60000    91.46317   178.13207     4.34832    88.53683   181.86793     4.34832
    33.70000    91.46305   178.13220     4.34827    88.53695   181.86780     4.34827
    33.80000    91.46294   178.13233     4.34823    88.53706   181.86767     4.34823
    33.90000    91.46283   178.13245     4.34818    88.53717   181.86755     4.34818
    34.00000    91.46272   178.13258     4.34814    88.53728   181.86742     4.34814
    34.10000    91.46261   178.13271     4.34809    88.53739   181.86729     4.34809
    34.20000    91.46249   178.13284     4.34805    88.53751   181.86716     4.34805
    34.30000    91.46238   178.13297     4.34800    88.53762   181.86703     4.34800
    34.40000    91.46227   178.13310     4.34796    88.53773   181.86690     4.34796
    34.50000    91.46216   178.13322     4.34791    88.53784   181.86678     4.34791
    34.60000    91.46205   178.13335     4.34787    88.53795   181.86665     4.34787
    34.70000    91.46194   178.13348     4.34782    88.53806   181.86652     4.34782
    34.80000    91.46183   178.13361     4.34778    88.53817   181.86639     4.34778
    34.90000    91.46172   178.13374     4.34773    88.53828   181.86626     4.34773
    35.00000    91.46160   178.13387     4.34769    88.53840   181.86613     4.34769
    35.10000    91.46149   178.13399     4.34764    88.53851   181.86601     4.34764
    35.20000    91.46138   178.13412     4.34760    88.53862   181.86588     4.34760
    35.30000    91.46127   178.13425     4.34755    88.53873   181.86575     4.34755
    35.40000    91.46116   178.13438     4.34751    88.53884   181.86562     4.34751
    35.50000    91.46105   178.13450     4.34746    88.53895   181.86550     4.34746
    35.60000    91.46094   178.13463     4.34742    88.53906   181.86537     4.34742
    35.70000    91.46083   178.13476     4.34737    88.53917   181.86524     4.34737
    35.80000    91.46072   178.13489     4.34733    88.53928   181.86511     4.34733
    35.90000    91.46061   178.13502     4.34728    88.53939   181.86498     4.34728
    36.00000    91.46050   178.13514     4.34724    88.53950   181.86486     4.34724
    36.10000    91.46039   178.13527     4.34719    88.53961   181.86473     4.34719
    36.20000    91.46027   178.13540     4.34715    88.53973   181.86460     4.34715
    36.30000    91.46016   178.13552     4.34710    88.53984   181.86448     4.34710
    36.40000    91.46005   178.13565     4.34705    88.53995   181.86435     4.34705
    36.50000    91.45994   178.13578     4.34701    88.54006   181.86422     4.34701
    36.60000    91.45983   178.13591     4.34696    88.54017   181.86409     4.34696
    36.70000    91.45972   178.13603     4.34692    88.54028   181.86397     4.34692
    36.80000    91.45961   178.13616     4.34687    88.54039   181.86384     4.34687
    36.90000    91.45950   178.13629     4.34683    88.54050   181.86371     4.34683
    37.00000    91.45939   178.13641     4.34678    88.54061   181.86359     4.34678
    37.10000    91.45928   178.13654     4.34674    88.54072   181.86346     4.34674
    37.20000    91.45917   178.13667     4.34669    88.54083   181.86333     4.34669
    37.30000    91.45906   178.13679     4.34665    88.54094   181.86321     4.34665
    37.40000    91.45895   178.13692     4.34660    88.54105   181.86308     4.34660
    37.50000    91.45884   178.13705     4.34656    88.54116   181.86295     4.34656
    37.60000    91.45873   178.13717     4.34651    88.54127   181.86283     4.34651
    37.70000    91.45862   178.13730     4.34647    88.54138   181.86270     4.34647
    37.80000    91.45851   178.13743     4.34642    88.54149   181.86257     4.34642
    37.90000    91.45840   178.13755     4.34638    88.54160   181.86245     4.34638
    38.00000    91.45829   178.13768     4.34633    88.54171   181.86232     4.34633
    38.10000    91.45819   178.13780     4.34629    88.54181   181.86220     4.34629
    38.20000    91.45808   178.13793     4.34624    88.54192   181.86207     4.34624
    38.30000    91.45797   178.13806     4.34620    88.54203   181.86194     4.34620
    38.40000    91.45786   178.13818     4.34615    88.54214   181.86182     4.34615
    38.50000    91.45775   178.13831     4.34611    88.54225   181.86169     4.34611
    38.60000    91.45764   178.13843     4.34606    88.54236   181.86157     4.34606
    38.70000    91.45753   178.13856     4.34602    88.54247   181.86144     4.34602
    38.80000    91.45742   178.13869     4.34597    88.54258   181.86131     4.34597
    38.90000    91.45731   178.13881     4.34593    88.54269   181.86119     4.34593
    39.00000    91.45720   178.13894     4.34588    88.54280   181.86106     4.34588
    39.10000    91.45709   178.13906     4.34583    88.54291   181.86094     4.34583
    39.20000    91.45698   178.13919     4.34579    88.54302   181.86081     4.34579
    39.30000    91.45688   178.13931     4.34574    88.54312   181.86069     4.34574
    39.40000    91.45677   178.13944     4.34570    88.54323   181.86056     4.34570
    39.50000    91.45666   178.13956     4.34565    88.54334   181.86044     4.34565
    39.60000    91.45655   178.13969     4.34561    88.54345   181.86031     4.34561
    39.70000    91.45644   178.13981     4.34556    88.54356   181.86019     4.34556
    39.80000    91.45633   178.13994     4.34552    88.54367   181.86006     4.34552
    39.90000    91.45622   178.14006     4.34547    88.54378   181.85994     4.34547
    40.00000    91.45612   178.14019     4.34543    88.54388   181.85981     4.34543
