 # applied field (T), theta (degree), phi (degree), abs for RE 3-4
     0.00000   180.00000   360.00000     4.44843   180.00000   360.00000     4.44843
     0.10000   179.87321   230.93854     4.44843   179.87321   219.06146     4.44843
     0.20000   179.70405   230.91581     4.44842   179.70405   219.08419     4.44842
     0.30000   179.57725   230.92256     4.44842   179.57725   219.07744     4.44842
     0.40000   179.40808   230.91566     4.44841   179.40808   219.08434     4.44841
     0.50000   179.28128   230.91957     4.44841   179.28128   219.08043     4.44841
     0.60000   179.15447   230.92226     4.44840   179.15447   219.07774     4.44840
     0.70000   178.98528   230.91811     4.44838   178.98528   219.08189     4.44838
     0.80000   178.85846   230.92016     4.44837   178.85846   219.07984     4.44837
     0.90000   178.68924   230.91708     4.44835   178.68924   219.08292     4.44835
     1.00000   178.56239   230.91869     4.44834   178.56239   219.08131     4.44834
     1.10000   178.43554   230.91998     4.44832   178.43554   219.08002     4.44832
     1.20000   178.26628   230.91747     4.44830   178.26628   219.08253     4.44830
     1.30000   178.13940   230.91853     4.44828   178.13940   219.08147     4.44828
     1.40000   178.01250   230.91940     4.44826   178.01250   219.08060     4.44826
     1.50000   177.84318   230.91722     4.44823   177.84318   219.08278     4.44823
     1.60000   177.71625   230.91793     4.44820   177.71625   219.08207     4.44820
     1.70000   177.54687   230.91596     4.44817   177.54687   219.08404     4.44817
     1.80000   177.41990   230.91653     4.44814   177.41990   219.08347     4.44814
     1.90000   177.29291   230.91699     4.44811   177.29291   219.08301     4.44811
     2.00000   177.12346   230.91515     4.44807   177.12346   219.08485     4.44807
     2.10000   176.99642   230.91550     4.44804   176.99642   219.08450     4.44804
     2.20000   176.82690   230.91375     4.44799   176.82690   219.08625     4.44799
     2.30000   176.69981   230.91401     4.44795   176.69981   219.08599     4.44795
     2.40000   176.57270   230.91419     4.44792   176.57270   219.08581     4.44792
     2.50000   176.40307   230.91248     4.44787   176.40307   219.08752     4.44787
     2.60000   176.27590   230.91257     4.44783   176.27590   219.08743     4.44783
     2.70000   176.10619   230.91090     4.44777   176.10619   219.08910     4.44777
     2.80000   175.97896   230.91092     4.44773   175.97896   219.08908     4.44773
     2.90000   175.85169   230.91087     4.44768   175.85169   219.08913     4.44768
     3.00000   175.68186   230.90920     4.44762   175.68186   219.09080     4.44762
     3.10000   175.55452   230.90908     4.44757   175.55452   219.09092     4.44757
     3.20000   175.38459   230.90742     4.44750   175.38459   219.09258     4.44750
     3.30000   175.25717   230.90723     4.44745   175.25717   219.09277     4.44745
     3.40000   175.12973   230.90699     4.44740   175.12973   219.09301     4.44740
     3.50000   174.95964   230.90531     4.44733   174.95964   219.09469     4.44733
     3.60000   174.83211   230.90500     4.44727   174.83211   219.09500     4.44727
     3.70000   174.70454   230.90466     4.44721   174.70454   219.09534     4.44721
     3.80000   174.53429   230.90294     4.44714   174.53429   219.09706     4.44714
     3.90000   174.40663   230.90253     4.44707   174.40663   219.09747     4.44707
     4.00000   174.23626   230.90079     4.44699   174.23626   219.09921     4.44699
     4.10000   174.10850   230.90031     4.44693   174.10850   219.09969     4.44693
     4.20000   173.98070   230.89980     4.44686   173.98070   219.10020     4.44686
     4.30000   173.81014   230.89801     4.44677   173.81014   219.10199     4.44677
     4.40000   173.68224   230.89744     4.44670   173.68224   219.10256     4.44670
     4.50000   173.55430   230.89683     4.44663   173.55430   219.10317     4.44663
     4.60000   173.38353   230.89499     4.44654   173.38353   219.10501     4.44654
     4.70000   173.25548   230.89432     4.44647   173.25548   219.10568     4.44647
     4.80000   173.08456   230.89245     4.44637   173.08456   219.10755     4.44637
     4.90000   172.95639   230.89172     4.44629   172.95639   219.10828     4.44629
     5.00000   172.82817   230.89096     4.44621   172.82817   219.10904     4.44621
     5.10000   172.65703   230.88902     4.44611   172.65703   219.11098     4.44611
     5.20000   172.52869   230.88820     4.44603   172.52869   219.11180     4.44603
     5.30000   172.40029   230.88735     4.44594   172.40029   219.11265     4.44594
     5.40000   172.22891   230.88535     4.44583   172.22891   219.11465     4.44583
     5.50000   172.10038   230.88444     4.44575   172.10038   219.11556     4.44575
     5.60000   171.92883   230.88239     4.44563   171.92883   219.11761     4.44563
     5.70000   171.80017   230.88142     4.44554   171.80017   219.11858     4.44554
     5.80000   171.67145   230.88042     4.44545   171.67145   219.11958     4.44545
     5.90000   171.49964   230.87830     4.44533   171.49964   219.12170     4.44533
     6.00000   171.37077   230.87724     4.44524   171.37077   219.12276     4.44524
     6.10000   171.24184   230.87615     4.44514   171.24184   219.12385     4.44514
     6.20000   171.06976   230.87396     4.44501   171.06976   219.12604     4.44501
     6.30000   170.94068   230.87281     4.44492   170.94068   219.12719     4.44492
     6.40000   170.76840   230.87056     4.44478   170.76840   219.12944     4.44478
     6.50000   170.63917   230.86935     4.44468   170.63917   219.13065     4.44468
     6.60000   170.50987   230.86812     4.44458   170.50987   219.13188     4.44458
     6.70000   170.33728   230.86579     4.44444   170.33728   219.13421     4.44444
     6.80000   170.20782   230.86449     4.44434   170.20782   219.13551     4.44434
     6.90000   170.07830   230.86317     4.44423   170.07830   219.13683     4.44423
     7.00000   169.90540   230.86075     4.44409   169.90540   219.13925     4.44409
     7.10000   169.77570   230.85937     4.44398   169.77570   219.14063     4.44398
     7.20000   169.64593   230.85796     4.44386   169.64593   219.14204     4.44386
     7.30000   169.47271   230.85545     4.44372   169.47271   219.14455     4.44372
     7.40000   169.34276   230.85398     4.44360   169.34276   219.14602     4.44360
     7.50000   169.21274   230.85247     4.44348   169.21274   219.14753     4.44348
     7.60000   169.03917   230.84988     4.44333   169.03917   219.15012     4.44333
     7.70000   168.90897   230.84831     4.44321   168.90897   219.15169     4.44321
     7.80000   168.73516   230.84566     4.44305   168.73516   219.15434     4.44305
     7.90000   168.60477   230.84403     4.44293   168.60477   219.15597     4.44293
     8.00000   168.47429   230.84238     4.44281   168.47429   219.15762     4.44281
     8.10000   168.30012   230.83962     4.44264   168.30012   219.16038     4.44264
     8.20000   168.16945   230.83791     4.44251   168.16945   219.16209     4.44251
     8.30000   168.03869   230.83616     4.44239   168.03869   219.16384     4.44239
     8.40000   167.86415   230.83331     4.44222   167.86415   219.16669     4.44222
     8.50000   167.73319   230.83150     4.44208   167.73319   219.16850     4.44208
     8.60000   167.60214   230.82966     4.44195   167.60214   219.17034     4.44195
     8.70000   167.42720   230.82671     4.44178   167.42720   219.17329     4.44178
     8.80000   167.29594   230.82481     4.44164   167.29594   219.17519     4.44164
     8.90000   167.16460   230.82288     4.44150   167.16460   219.17712     4.44150
     9.00000   166.98926   230.81981     4.44132   166.98926   219.18019     4.44132
     9.10000   166.85769   230.81782     4.44118   166.85769   219.18218     4.44118
     9.20000   166.72603   230.81579     4.44104   166.72603   219.18421     4.44104
     9.30000   166.55028   230.81263     4.44085   166.55028   219.18737     4.44085
     9.40000   166.41839   230.81054     4.44071   166.41839   219.18946     4.44071
     9.50000   166.28641   230.80841     4.44056   166.28641   219.19159     4.44056
     9.60000   166.11022   230.80514     4.44037   166.11022   219.19486     4.44037
     9.70000   165.97801   230.80295     4.44022   165.97801   219.19705     4.44022
     9.80000   165.84569   230.80073     4.44007   165.84569   219.19927     4.44007
     9.90000   165.66906   230.79734     4.43987   165.66906   219.20266     4.43987
    10.00000   165.53651   230.79505     4.43972   165.53651   219.20495     4.43972
    10.10000   165.40385   230.79273     4.43956   165.40385   219.20727     4.43956
    10.20000   165.22677   230.78923     4.43936   165.22677   219.21077     4.43936
    10.30000   165.09386   230.78684     4.43920   165.09386   219.21316     4.43920
    10.40000   164.96085   230.78442     4.43904   164.96085   219.21558     4.43904
    10.50000   164.82773   230.78197     4.43888   164.82773   219.21803     4.43888
    10.60000   164.65003   230.77831     4.43867   164.65003   219.22169     4.43867
    10.70000   164.51666   230.77579     4.43851   164.51666   219.22421     4.43851
    10.80000   164.38317   230.77324     4.43835   164.38317   219.22676     4.43835
    10.90000   164.20498   230.76945     4.43813   164.20498   219.23055     4.43813
    11.00000   164.07123   230.76683     4.43796   164.07123   219.23317     4.43796
    11.10000   163.93737   230.76417     4.43779   163.93737   219.23583     4.43779
    11.20000   163.75867   230.76026     4.43757   163.75867   219.23974     4.43757
    11.30000   163.62454   230.75753     4.43740   163.62454   219.24247     4.43740
    11.40000   163.49029   230.75477     4.43723   163.49029   219.24523     4.43723
    11.50000   163.31108   230.75073     4.43700   163.31108   219.24927     4.43700
    11.60000   163.17656   230.74789     4.43683   163.17656   219.25211     4.43683
    11.70000   163.04191   230.74502     4.43665   163.04191   219.25498     4.43665
    11.80000   162.90714   230.74212     4.43647   162.90714   219.25788     4.43647
    11.90000   162.72724   230.73791     4.43624   162.72724   219.26209     4.43624
    12.00000   162.59218   230.73493     4.43606   162.59218   219.26507     4.43606
    12.10000   162.45701   230.73192     4.43588   162.45701   219.26808     4.43588
    12.20000   162.27655   230.72757     4.43564   162.27655   219.27243     4.43564
    12.30000   162.14108   230.72448     4.43545   162.14108   219.27552     4.43545
    12.40000   162.00548   230.72135     4.43527   162.00548   219.27865     4.43527
    12.50000   161.86975   230.71819     4.43508   161.86975   219.28181     4.43508
    12.60000   161.68856   230.71366     4.43483   161.68856   219.28634     4.43483
    12.70000   161.55253   230.71042     4.43464   161.55253   219.28958     4.43464
    12.80000   161.41637   230.70715     4.43445   161.41637   219.29285     4.43445
    12.90000   161.23460   230.70248     4.43420   161.23460   219.29752     4.43420
    13.00000   161.09813   230.69912     4.43401   161.09813   219.30088     4.43401
    13.10000   160.96152   230.69573     4.43381   160.96152   219.30427     4.43381
    13.20000   160.82478   230.69230     4.43362   160.82478   219.30770     4.43362
    13.30000   160.64224   230.68744     4.43336   160.64224   219.31256     4.43336
    13.40000   160.50518   230.68393     4.43316   160.50518   219.31607     4.43316
    13.50000   160.36797   230.68039     4.43296   160.36797   219.31961     4.43296
    13.60000   160.23063   230.67680     4.43276   160.23063   219.32320     4.43276
    13.70000   160.04729   230.67174     4.43249   160.04729   219.32826     4.43249
    13.80000   159.90962   230.66808     4.43229   159.90962   219.33192     4.43229
    13.90000   159.77181   230.66437     4.43208   159.77181   219.33563     4.43208
    14.00000   159.63385   230.66062     4.43188   159.63385   219.33938     4.43188
    14.10000   159.44969   230.65537     4.43161   159.44969   219.34463     4.43161
    14.20000   159.31140   230.65154     4.43140   159.31140   219.34846     4.43140
    14.30000   159.17295   230.64767     4.43119   159.17295   219.35233     4.43119
    14.40000   159.03436   230.64376     4.43098   159.03436   219.35624     4.43098
    14.50000   158.84936   230.63830     4.43070   158.84936   219.36170     4.43070
    14.60000   158.71042   230.63430     4.43048   158.71042   219.36570     4.43048
    14.70000   158.57133   230.63026     4.43027   158.57133   219.36974     4.43027
    14.80000   158.43209   230.62619     4.43005   158.43209   219.37381     4.43005
    14.90000   158.24622   230.62051     4.42977   158.24622   219.37949     4.42977
    15.00000   158.10662   230.61635     4.42955   158.10662   219.38365     4.42955
    15.10000   157.96687   230.61214     4.42933   157.96687   219.38786     4.42933
    15.20000   157.82696   230.60790     4.42911   157.82696   219.39210     4.42911
    15.30000   157.68690   230.60361     4.42889   157.68690   219.39639     4.42889
    15.40000   157.49992   230.59767     4.42860   157.49992   219.40233     4.42860
    15.50000   157.35949   230.59329     4.42837   157.35949   219.40671     4.42837
    15.60000   157.21890   230.58887     4.42815   157.21890   219.41113     4.42815
    15.70000   157.07814   230.58441     4.42792   157.07814   219.41559     4.42792
    15.80000   156.93723   230.57990     4.42769   156.93723   219.42010     4.42769
    15.90000   156.74912   230.57368     4.42739   156.74912   219.42632     4.42739
    16.00000   156.60782   230.56908     4.42716   156.60782   219.43092     4.42716
    16.10000   156.46636   230.56444     4.42693   156.46636   219.43556     4.42693
    16.20000   156.32474   230.55976     4.42670   156.32474   219.44024     4.42670
    16.30000   156.18294   230.55503     4.42646   156.18294   219.44497     4.42646
    16.40000   155.99366   230.54853     4.42616   155.99366   219.45147     4.42616
    16.50000   155.85148   230.54370     4.42592   155.85148   219.45630     4.42592
    16.60000   155.70912   230.53884     4.42568   155.70912   219.46116     4.42568
    16.70000   155.56660   230.53393     4.42545   155.56660   219.46607     4.42545
    16.80000   155.42390   230.52897     4.42521   155.42390   219.47103     4.42521
    16.90000   155.23342   230.52217     4.42489   155.23342   219.47783     4.42489
    17.00000   155.09032   230.51712     4.42465   155.09032   219.48288     4.42465
    17.10000   154.94704   230.51202     4.42441   154.94704   219.48798     4.42441
    17.20000   154.80359   230.50687     4.42417   154.80359   219.49313     4.42417
    17.30000   154.65996   230.50169     4.42392   154.65996   219.49831     4.42392
    17.40000   154.51616   230.49645     4.42367   154.51616   219.50355     4.42367
    17.50000   154.32420   230.48929     4.42335   154.32420   219.51071     4.42335
    17.60000   154.17997   230.48396     4.42310   154.17997   219.51604     4.42310
    17.70000   154.03557   230.47858     4.42285   154.03557   219.52142     4.42285
    17.80000   153.89099   230.47315     4.42260   153.89099   219.52685     4.42260
    17.90000   153.74622   230.46767     4.42235   153.74622   219.53233     4.42235
    18.00000   153.60127   230.46215     4.42210   153.60127   219.53785     4.42210
    18.10000   153.40778   230.45462     4.42177   153.40778   219.54538     4.42177
    18.20000   153.26240   230.44900     4.42152   153.26240   219.55100     4.42152
    18.30000   153.11683   230.44332     4.42126   153.11683   219.55668     4.42126
    18.40000   152.97108   230.43760     4.42100   152.97108   219.56240     4.42100
    18.50000   152.82513   230.43184     4.42075   152.82513   219.56816     4.42075
    18.60000   152.67900   230.42602     4.42049   152.67900   219.57398     4.42049
    18.70000   152.53267   230.42016     4.42023   152.53267   219.57984     4.42023
    18.80000   152.38616   230.41425     4.41997   152.38616   219.58575     4.41997
    18.90000   152.19059   230.40621     4.41963   152.19059   219.59379     4.41963
    19.00000   152.04362   230.40019     4.41936   152.04362   219.59981     4.41936
    19.10000   151.89646   230.39412     4.41910   151.89646   219.60588     4.41910
    19.20000   151.74911   230.38801     4.41883   151.74911   219.61199     4.41883
    19.30000   151.60156   230.38184     4.41857   151.60156   219.61816     4.41857
    19.40000   151.45381   230.37563     4.41830   151.45381   219.62437     4.41830
    19.50000   151.30586   230.36936     4.41804   151.30586   219.63064     4.41804
    19.60000   151.15772   230.36305     4.41777   151.15772   219.63695     4.41777
    19.70000   151.00937   230.35668     4.41750   151.00937   219.64332     4.41750
    19.80000   150.81136   230.34806     4.41714   150.81136   219.65194     4.41714
    19.90000   150.66255   230.34159     4.41687   150.66255   219.65841     4.41687
    20.00000   150.51353   230.33506     4.41660   150.51353   219.66494     4.41660
    20.10000   150.36430   230.32848     4.41633   150.36430   219.67152     4.41633
    20.20000   150.21487   230.32185     4.41605   150.21487   219.67815     4.41605
    20.30000   150.06524   230.31518     4.41578   150.06524   219.68482     4.41578
    20.40000   149.91540   230.30845     4.41550   149.91540   219.69155     4.41550
    20.50000   149.76535   230.30167     4.41522   149.76535   219.69833     4.41522
    20.60000   149.61509   230.29484     4.41494   149.61509   219.70516     4.41494
    20.70000   149.46462   230.28795     4.41467   149.46462   219.71205     4.41467
    20.80000   149.31394   230.28102     4.41439   149.31394   219.71898     4.41439
    20.90000   149.16305   230.27403     4.41410   149.16305   219.72597     4.41410
    21.00000   149.01194   230.26700     4.41382   149.01194   219.73300     4.41382
    21.10000   148.81026   230.25750     4.41345   148.81026   219.74250     4.41345
    21.20000   148.65865   230.25034     4.41317   148.65865   219.74966     4.41317
    21.30000   148.50683   230.24313     4.41288   148.50683   219.75687     4.41288
    21.40000   148.35479   230.23587     4.41260   148.35479   219.76413     4.41260
    21.50000   148.20254   230.22856     4.41231   148.20254   219.77144     4.41231
    21.60000   148.05006   230.22119     4.41202   148.05006   219.77881     4.41202
    21.70000   147.89737   230.21377     4.41174   147.89737   219.78623     4.41174
    21.80000   147.74445   230.20630     4.41145   147.74445   219.79370     4.41145
    21.90000   147.59131   230.19878     4.41116   147.59131   219.80122     4.41116
    22.00000   147.43795   230.19120     4.41087   147.43795   219.80880     4.41087
    22.10000   147.28436   230.18357     4.41057   147.28436   219.81643     4.41057
    22.20000   147.13055   230.17588     4.41028   147.13055   219.82412     4.41028
    22.30000   146.97651   230.16814     4.40999   146.97651   219.83186     4.40999
    22.40000   146.82225   230.16035     4.40969   146.82225   219.83965     4.40969
    22.50000   146.66775   230.15250     4.40940   146.66775   219.84750     4.40940
    22.60000   146.51303   230.14460     4.40910   146.51303   219.85540     4.40910
    22.70000   146.35808   230.13665     4.40880   146.35808   219.86335     4.40880
    22.80000   146.20289   230.12864     4.40850   146.20289   219.87136     4.40850
    22.90000   146.04748   230.12058     4.40821   146.04748   219.87942     4.40821
    23.00000   145.89183   230.11246     4.40791   145.89183   219.88754     4.40791
    23.10000   145.73594   230.10429     4.40760   145.73594   219.89571     4.40760
    23.20000   145.57982   230.09606     4.40730   145.57982   219.90394     4.40730
    23.30000   145.42347   230.08778     4.40700   145.42347   219.91222     4.40700
    23.40000   145.26688   230.07945     4.40670   145.26688   219.92055     4.40670
    23.50000   145.11004   230.07106     4.40639   145.11004   219.92894     4.40639
    23.60000   144.95297   230.06261     4.40609   144.95297   219.93739     4.40609
    23.70000   144.79566   230.05411     4.40578   144.79566   219.94589     4.40578
    23.80000   144.63811   230.04555     4.40547   144.63811   219.95445     4.40547
    23.90000   144.48031   230.03694     4.40517   144.48031   219.96306     4.40517
    24.00000   144.37480   230.03116     4.40495   144.37480   219.96884     4.40495
    24.10000   144.21660   230.02245     4.40464   144.21660   219.97755     4.40464
    24.20000   144.05815   230.01369     4.40433   144.05815   219.98631     4.40433
    24.30000   143.89945   230.00488     4.40402   143.89945   219.99512     4.40402
    24.40000   143.74050   229.99601     4.40371   143.74050   220.00399     4.40371
    24.50000   143.58131   229.98708     4.40340   143.58131   220.01292     4.40340
    24.60000   143.42186   229.97810     4.40308   143.42186   220.02190     4.40308
    24.70000   143.26217   229.96906     4.40277   143.26217   220.03094     4.40277
    24.80000   143.10222   229.95996     4.40246   143.10222   220.04004     4.40246
    24.90000   142.94201   229.95081     4.40214   142.94201   220.04919     4.40214
    25.00000   142.78156   229.94161     4.40182   142.78156   220.05839     4.40182
    25.10000   142.62084   229.93235     4.40151   142.62084   220.06765     4.40151
    25.20000   142.45988   229.92303     4.40119   142.45988   220.07697     4.40119
    25.30000   142.35223   229.91675     4.40096   142.35223   220.08325     4.40096
    25.40000   142.19082   229.90734     4.40064   142.19082   220.09266     4.40064
    25.50000   142.02916   229.89787     4.40032   142.02916   220.10213     4.40032
    25.60000   141.86724   229.88835     4.40000   141.86724   220.11165     4.40000
    25.70000   141.70505   229.87877     4.39968   141.70505   220.12123     4.39968
    25.80000   141.54260   229.86914     4.39936   141.54260   220.13086     4.39936
    25.90000   141.37989   229.85944     4.39903   141.37989   220.14056     4.39903
    26.00000   141.21691   229.84970     4.39871   141.21691   220.15030     4.39871
    26.10000   141.10790   229.84312     4.39848   141.10790   220.15688     4.39848
    26.20000   140.94447   229.83328     4.39815   140.94447   220.16672     4.39815
    26.30000   140.78078   229.82338     4.39783   140.78078   220.17662     4.39783
    26.40000   140.61681   229.81343     4.39750   140.61681   220.18657     4.39750
    26.50000   140.45257   229.80342     4.39717   140.45257   220.19658     4.39717
    26.60000   140.28806   229.79335     4.39684   140.28806   220.20665     4.39684
    26.70000   140.12327   229.78323     4.39651   140.12327   220.21677     4.39651
    26.80000   140.01305   229.77641     4.39628   140.01305   220.22359     4.39628
    26.90000   139.84780   229.76619     4.39595   139.84780   220.23381     4.39595
    27.00000   139.68227   229.75592     4.39561   139.68227   220.24408     4.39561
    27.10000   139.51647   229.74559     4.39528   139.51647   220.25441     4.39528
    27.20000   139.35039   229.73521     4.39495   139.35039   220.26479     4.39495
    27.30000   139.23928   229.72820     4.39471   139.23928   220.27180     4.39471
    27.40000   139.07272   229.71773     4.39438   139.07272   220.28227     4.39438
    27.50000   138.90589   229.70720     4.39404   138.90589   220.29280     4.39404
    27.60000   138.73876   229.69661     4.39370   138.73876   220.30339     4.39370
    27.70000   138.57135   229.68597     4.39336   138.57135   220.31403     4.39336
    27.80000   138.45935   229.67878     4.39313   138.45935   220.32122     4.39313
    27.90000   138.29146   229.66805     4.39279   138.29146   220.33195     4.39279
    28.00000   138.12327   229.65726     4.39244   138.12327   220.34274     4.39244
    28.10000   137.95480   229.64642     4.39210   137.95480   220.35358     4.39210
    28.20000   137.78603   229.63552     4.39176   137.78603   220.36448     4.39176
    28.30000   137.67312   229.62816     4.39152   137.67312   220.37184     4.39152
    28.40000   137.50386   229.61717     4.39118   137.50386   220.38283     4.39118
    28.50000   137.33430   229.60612     4.39083   137.33430   220.39388     4.39083
    28.60000   137.16445   229.59503     4.39049   137.16445   220.40497     4.39049
    28.70000   137.05079   229.58753     4.39024   137.05079   220.41247     4.39024
    28.80000   136.88044   229.57634     4.38990   136.88044   220.42366     4.38990
    28.90000   136.70978   229.56510     4.38955   136.70978   220.43490     4.38955
    29.00000   136.53882   229.55380     4.38920   136.53882   220.44620     4.38920
    29.10000   136.42442   229.54617     4.38896   136.42442   220.45383     4.38896
    29.20000   136.25295   229.53478     4.38861   136.25295   220.46522     4.38861
    29.30000   136.08117   229.52335     4.38825   136.08117   220.47665     4.38825
    29.40000   135.90908   229.51185     4.38790   135.90908   220.48815     4.38790
    29.50000   135.79392   229.50409     4.38766   135.79392   220.49591     4.38766
    29.60000   135.62131   229.49251     4.38730   135.62131   220.50749     4.38730
    29.70000   135.44839   229.48088     4.38695   135.44839   220.51912     4.38695
    29.80000   135.27516   229.46919     4.38659   135.27516   220.53081     4.38659
    29.90000   135.15922   229.46130     4.38634   135.15922   220.53870     4.38634
    30.00000   134.98546   229.44953     4.38599   134.98546   220.55047     4.38599
    30.10000   134.81137   229.43771     4.38563   134.81137   220.56229     4.38563
    30.20000   134.69487   229.42972     4.38538   134.69487   220.57028     4.38538
    30.30000   134.52025   229.41781     4.38502   134.52025   220.58219     4.38502
    30.40000   134.34530   229.40585     4.38466   134.34530   220.59415     4.38466
    30.50000   134.22821   229.39777     4.38441   134.22821   220.60223     4.38441
    30.60000   134.05273   229.38573     4.38405   134.05273   220.61427     4.38405
    30.70000   133.87691   229.37364     4.38368   133.87691   220.62636     4.38368
    30.80000   133.75923   229.36546     4.38343   133.75923   220.63454     4.38343
    30.90000   133.58287   229.35329     4.38307   133.58287   220.64671     4.38307
    31.00000   133.40617   229.34106     4.38270   133.40617   220.65894     4.38270
    31.10000   133.28790   229.33280     4.38245   133.28790   220.66720     4.38245
    31.20000   133.11064   229.32050     4.38208   133.11064   220.67950     4.38208
    31.30000   132.93304   229.30814     4.38171   132.93304   220.69186     4.38171
    31.40000   132.81417   229.29979     4.38145   132.81417   220.70021     4.38145
    31.50000   132.63600   229.28736     4.38109   132.63600   220.71264     4.38109
    31.60000   132.45750   229.27488     4.38072   132.45750   220.72512     4.38072
    31.70000   132.33801   229.26644     4.38046   132.33801   220.73356     4.38046
    31.80000   132.15893   229.25389     4.38009   132.15893   220.74611     4.38009
    31.90000   131.97950   229.24128     4.37971   131.97950   220.75872     4.37971
    32.00000   131.85940   229.23276     4.37945   131.85940   220.76724     4.37945
    32.10000   131.67939   229.22008     4.37908   131.67939   220.77992     4.37908
    32.20000   131.49903   229.20736     4.37871   131.49903   220.79264     4.37871
    32.30000   131.37829   229.19876     4.37844   131.37829   220.80124     4.37844
    32.40000   131.19733   229.18596     4.37807   131.19733   220.81404     4.37807
    32.50000   131.07620   229.17731     4.37780   131.07620   220.82269     4.37780
    32.60000   130.89465   229.16443     4.37743   130.89465   220.83557     4.37743
    32.70000   130.71274   229.15152     4.37705   130.71274   220.84848     4.37705
    32.80000   130.59096   229.14279     4.37678   130.59096   220.85721     4.37678
    32.90000   130.40845   229.12980     4.37640   130.40845   220.87020     4.37640
    33.00000   130.22557   229.11678     4.37602   130.22557   220.88322     4.37602
    33.10000   130.10313   229.10797     4.37575   130.10313   220.89203     4.37575
    33.20000   129.91964   229.09488     4.37537   129.91964   220.90512     4.37537
    33.30000   129.79679   229.08602     4.37510   129.79679   220.91398     4.37510
    33.40000   129.61268   229.07286     4.37472   129.61268   220.92714     4.37472
    33.50000   129.42819   229.05966     4.37434   129.42819   220.94034     4.37434
    33.60000   129.30468   229.05074     4.37407   129.30468   220.94926     4.37407
    33.70000   129.11956   229.03747     4.37368   129.11956   220.96253     4.37368
    33.80000   128.99562   229.02851     4.37341   128.99562   220.97149     4.37341
    33.90000   128.80988   229.01518     4.37302   128.80988   220.98482     4.37302
    34.00000   128.68551   229.00617     4.37275   128.68551   220.99383     4.37275
    34.10000   128.49912   228.99278     4.37236   128.49912   221.00722     4.37236
    34.20000   128.31235   228.97936     4.37197   128.31235   221.02064     4.37197
    34.30000   128.18729   228.97028     4.37170   128.18729   221.02972     4.37170
    34.40000   127.99987   228.95680     4.37130   127.99987   221.04320     4.37130
    34.50000   127.87438   228.94769     4.37103   127.87438   221.05231     4.37103
    34.60000   127.68630   228.93415     4.37064   127.68630   221.06585     4.37064
    34.70000   127.56037   228.92500     4.37036   127.56037   221.07500     4.37036
    34.80000   127.37163   228.91141     4.36997   127.37163   221.08859     4.36997
    34.90000   127.18249   228.89778     4.36957   127.18249   221.10222     4.36957
    35.00000   127.05584   228.88858     4.36929   127.05584   221.11142     4.36929
    35.10000   126.86604   228.87490     4.36889   126.86604   221.12510     4.36889
    35.20000   126.73894   228.86566     4.36862   126.73894   221.13434     4.36862
    35.30000   126.54846   228.85194     4.36822   126.54846   221.14806     4.36822
    35.40000   126.42090   228.84266     4.36794   126.42090   221.15734     4.36794
    35.50000   126.22974   228.82889     4.36754   126.22974   221.17111     4.36754
    35.60000   126.10173   228.81959     4.36726   126.10173   221.18041     4.36726
    35.70000   125.90987   228.80577     4.36686   125.90987   221.19423     4.36686
    35.80000   125.78140   228.79644     4.36658   125.78140   221.20356     4.36658
    35.90000   125.58885   228.78258     4.36617   125.58885   221.21742     4.36617
    36.00000   125.39588   228.76870     4.36577   125.39588   221.23130     4.36577
    36.10000   125.26666   228.75932     4.36549   125.26666   221.24068     4.36549
    36.20000   125.07299   228.74540     4.36508   125.07299   221.25460     4.36508
    36.30000   124.94330   228.73600     4.36480   124.94330   221.26400     4.36480
    36.40000   124.74892   228.72204     4.36439   124.74892   221.27796     4.36439
    36.50000   124.61874   228.71261     4.36410   124.61874   221.28739     4.36410
    36.60000   124.42365   228.69862     4.36370   124.42365   221.30138     4.36370
    36.70000   124.29299   228.68917     4.36341   124.29299   221.31083     4.36341
    36.80000   124.09717   228.67515     4.36300   124.09717   221.32485     4.36300
    36.90000   123.96603   228.66568     4.36271   123.96603   221.33432     4.36271
    37.00000   123.76948   228.65163     4.36230   123.76948   221.34837     4.36230
    37.10000   123.63786   228.64215     4.36202   123.63786   221.35785     4.36202
    37.20000   123.44057   228.62807     4.36160   123.44057   221.37193     4.36160
    37.30000   123.30845   228.61857     4.36132   123.30845   221.38143     4.36132
    37.40000   123.11043   228.60447     4.36090   123.11043   221.39553     4.36090
    37.50000   122.97781   228.59495     4.36061   122.97781   221.40505     4.36061
    37.60000   122.77904   228.58083     4.36020   122.77904   221.41917     4.36020
    37.70000   122.57981   228.56670     4.35978   122.57981   221.43330     4.35978
    37.80000   122.44639   228.55717     4.35949   122.44639   221.44283     4.35949
    37.90000   122.24641   228.54302     4.35908   122.24641   221.45698     4.35908
    38.00000   122.11248   228.53348     4.35878   122.11248   221.46652     4.35878
    38.10000   121.91174   228.51932     4.35837   121.91174   221.48068     4.35837
    38.20000   121.77730   228.50977     4.35807   121.77730   221.49023     4.35807
    38.30000   121.57579   228.49560     4.35766   121.57579   221.50440     4.35766
    38.40000   121.44083   228.48605     4.35736   121.44083   221.51395     4.35736
    38.50000   121.23855   228.47188     4.35694   121.23855   221.52812     4.35694
    38.60000   121.10307   228.46232     4.35665   121.10307   221.53768     4.35665
    38.70000   120.90000   228.44814     4.35623   120.90000   221.55186     4.35623
    38.80000   120.76401   228.43859     4.35593   120.76401   221.56141     4.35593
    38.90000   120.56015   228.42441     4.35551   120.56015   221.57559     4.35551
    39.00000   120.42363   228.41486     4.35522   120.42363   221.58514     4.35522
    39.10000   120.21899   228.40069     4.35480   120.21899   221.59931     4.35480
    39.20000   120.08193   228.39114     4.35450   120.08193   221.60886     4.35450
    39.30000   119.87649   228.37697     4.35408   119.87649   221.62303     4.35408
    39.40000   119.67057   228.36282     4.35365   119.67057   221.63718     4.35365
    39.50000   119.53266   228.35328     4.35336   119.53266   221.64672     4.35336
    39.60000   119.32593   228.33914     4.35293   119.32593   221.66086     4.35293
    39.70000   119.18748   228.32961     4.35264   119.18748   221.67039     4.35264
    39.80000   118.97994   228.31548     4.35221   118.97994   221.68452     4.35221
    39.90000   118.84095   228.30597     4.35191   118.84095   221.69403     4.35191
    40.00000   118.63260   228.29187     4.35149   118.63260   221.70813     4.35149
