 # applied field (T), theta (degree), phi (degree), abs for RE 3-4
     0.00000     1.43049   135.00000     0.02703     1.43049    45.00000     0.02703
     0.10000     2.02167   169.64198     0.02698     1.71112    87.37661     0.02694
     0.20000     3.09740   186.02073     0.02693     2.65163   111.17156     0.02685
     0.30000     4.18104   193.30037     0.02689     3.71451   120.52444     0.02677
     0.40000     5.42079   197.59495     0.02686     4.94392   126.10734     0.02669
     0.50000     6.67686   200.23691     0.02683     6.20840   129.29345     0.02662
     0.60000     7.82141   202.00674     0.02681     7.38168   130.94318     0.02657
     0.70000     9.08021   203.29564     0.02680     8.67094   132.26532     0.02651
     0.80000    10.33254   204.26305     0.02680     9.96391   133.11684     0.02647
     0.90000    11.46234   205.04943     0.02680    11.14746   133.49228     0.02643
     1.00000    12.69403   205.66910     0.02681    12.43779   133.82787     0.02640
     1.10000    13.91140   206.19001     0.02682    13.72314   133.98890     0.02637
     1.20000    15.11258   206.64203     0.02684    15.00158   134.01518     0.02636
     1.30000    16.40242   207.01621     0.02687    16.37790   134.01403     0.02635
     1.40000    17.56454   207.38784     0.02690    17.63672   133.83325     0.02635
     1.50000    18.80838   207.71074     0.02694    18.98822   133.63785     0.02635
     1.60000    19.92571   208.04737     0.02698    20.22237   133.31444     0.02636
     1.70000    21.11791   208.35346     0.02703    21.54445   132.97908     0.02638
     1.80000    22.37658   208.64031     0.02709    22.94881   132.61662     0.02641
     1.90000    23.50727   208.95436     0.02714    24.23516   132.16079     0.02644
     2.00000    24.60670   209.27673     0.02719    25.50391   131.65751     0.02648
     2.10000    25.76107   209.59672     0.02726    26.84832   131.12786     0.02652
     2.20000    26.96042   209.92391     0.02734    28.26239   130.56104     0.02658
     2.30000    28.03253   210.28480     0.02740    29.56191   129.93455     0.02664
     2.40000    29.14104   210.66224     0.02748    30.92754   129.27097     0.02670
     2.50000    30.20086   211.06937     0.02755    32.26871   128.56343     0.02677
     2.60000    31.28157   211.50771     0.02764    33.66884   127.81087     0.02686
     2.70000    32.30474   211.98579     0.02771    35.04198   127.01513     0.02695
     2.80000    33.33261   212.51151     0.02779    36.46749   126.16852     0.02705
     2.90000    34.29441   213.08876     0.02787    37.86420   125.28077     0.02715
     3.00000    35.29948   213.74488     0.02795    39.38089   124.32054     0.02728
     3.10000    36.17281   214.45864     0.02801    40.79186   123.33797     0.02739
     3.20000    37.06680   215.28278     0.02806    42.31293   122.27653     0.02754
     3.30000    37.91712   216.22448     0.02811    43.86570   121.15271     0.02770
     3.40000    38.71587   217.30568     0.02813    45.44543   119.96633     0.02787
     3.50000    39.45807   218.55152     0.02812    47.04732   118.71860     0.02806
     3.60000    40.17215   220.03234     0.02808    48.72612   117.38066     0.02827
     3.70000    40.85311   221.80196     0.02799    50.46932   115.95246     0.02852
     3.80000    41.53152   223.98047     0.02783    52.31817   114.40319     0.02881
     3.90000    42.20751   226.59750     0.02759    54.19852   112.77278     0.02912
     4.00000    43.00604   229.96203     0.02725    56.24060   110.96772     0.02950
     4.10000    44.05489   234.23619     0.02676    58.39847   109.00641     0.02994
     4.20000    45.74607   239.93785     0.02608    60.78578   106.78503     0.03049
     4.30000    48.94272   247.62149     0.02519    63.47827   104.21324     0.03116
     4.40000    56.34045   258.22711     0.02417    66.80219   100.97204     0.03205
     4.50000   100.09893   265.50509     0.03050    79.90107    94.49491     0.03050
     4.60000   100.10158   265.69679     0.03048    79.89842    94.30321     0.03048
     4.70000   100.10413   265.88863     0.03047    79.89587    94.11137     0.03047
     4.80000   100.10657   266.08060     0.03046    79.89343    93.91940     0.03046
     4.90000   100.10890   266.27270     0.03045    79.89110    93.72730     0.03045
     5.00000   100.11112   266.46492     0.03044    79.88888    93.53508     0.03044
     5.10000   100.11322   266.65727     0.03043    79.88678    93.34273     0.03043
     5.20000   100.11522   266.84973     0.03041    79.88478    93.15027     0.03041
     5.30000   100.11711   267.04230     0.03040    79.88289    92.95770     0.03040
     5.40000   100.11889   267.23498     0.03039    79.88111    92.76502     0.03039
     5.50000   100.12055   267.42776     0.03038    79.87945    92.57224     0.03038
     5.60000   100.12210   267.62064     0.03037    79.87790    92.37936     0.03037
     5.70000   100.12354   267.81361     0.03037    79.87646    92.18639     0.03037
     5.80000   100.12487   268.00667     0.03036    79.87513    91.99333     0.03036
     5.90000   100.12609   268.19982     0.03035    79.87391    91.80018     0.03035
     6.00000   100.12719   268.39305     0.03034    79.87281    91.60695     0.03034
     6.10000   100.12819   268.58636     0.03033    79.87181    91.41364     0.03033
     6.20000   100.12907   268.77974     0.03033    79.87093    91.22026     0.03033
     6.30000   100.12983   268.97319     0.03032    79.87017    91.02681     0.03032
     6.40000   100.13049   269.16670     0.03031    79.86951    90.83330     0.03031
     6.50000   100.13103   269.36027     0.03030    79.86897    90.63973     0.03030
     6.60000   100.13145   269.55390     0.03030    79.86855    90.44610     0.03030
     6.70000   100.13177   269.74758     0.03029    79.86823    90.25242     0.03029
     6.80000   100.13197   269.94130     0.03029    79.86803    90.05870     0.03029
     6.90000   100.13205   270.13507     0.03028    79.86795    89.86493     0.03028
     7.00000   100.13203   270.32888     0.03028    79.86797    89.67112     0.03028
     7.10000   100.13189   270.52271     0.03027    79.86811    89.47729     0.03027
     7.20000   100.13163   270.71658     0.03027    79.86837    89.28342     0.03027
     7.30000   100.13126   270.91047     0.03026    79.86874    89.08953     0.03026
     7.40000   100.13078   271.10438     0.03026    79.86922    88.89562     0.03026
     7.50000   100.13018   271.29831     0.03026    79.86982    88.70169     0.03026
     7.60000   100.12948   271.49225     0.03026    79.87052    88.50775     0.03026
     7.70000   100.12865   271.68620     0.03025    79.87135    88.31380     0.03025
     7.80000   100.12771   271.88014     0.03025    79.87229    88.11986     0.03025
     7.90000   100.12666   272.07409     0.03025    79.87334    87.92591     0.03025
     8.00000   100.12550   272.26803     0.03025    79.87450    87.73197     0.03025
     8.10000   100.12422   272.46196     0.03025    79.87578    87.53804     0.03025
     8.20000   100.12283   272.65587     0.03025    79.87717    87.34413     0.03025
     8.30000   100.12132   272.84976     0.03025    79.87868    87.15024     0.03025
     8.40000   100.11970   273.04363     0.03025    79.88030    86.95637     0.03025
     8.50000   100.11797   273.23747     0.03025    79.88203    86.76253     0.03025
     8.60000   100.11613   273.43128     0.03025    79.88387    86.56872     0.03025
     8.70000   100.11417   273.62505     0.03025    79.88583    86.37495     0.03025
     8.80000   100.11210   273.81878     0.03025    79.88790    86.18122     0.03025
     8.90000   100.10991   274.01246     0.03025    79.89009    85.98754     0.03025
     9.00000   100.10762   274.20610     0.03025    79.89238    85.79390     0.03025
     9.10000   100.10521   274.39967     0.03025    79.89479    85.60033     0.03025
     9.20000   100.10268   274.59319     0.03026    79.89732    85.40681     0.03026
     9.30000   100.10005   274.78664     0.03026    79.89995    85.21336     0.03026
     9.40000   100.09730   274.98003     0.03026    79.90270    85.01997     0.03026
     9.50000   100.09445   275.17334     0.03027    79.90555    84.82666     0.03027
     9.60000   100.09148   275.36658     0.03027    79.90852    84.63342     0.03027
     9.70000   100.08840   275.55974     0.03027    79.91160    84.44026     0.03027
     9.80000   100.08520   275.75281     0.03028    79.91480    84.24719     0.03028
     9.90000   100.08190   275.94579     0.03028    79.91810    84.05421     0.03028
    10.00000   100.07849   276.13868     0.03029    79.92151    83.86132     0.03029
    10.10000   100.07497   276.33147     0.03029    79.92503    83.66853     0.03029
    10.20000   100.07133   276.52415     0.03030    79.92867    83.47585     0.03030
    10.30000   100.06759   276.71673     0.03031    79.93241    83.28327     0.03031
    10.40000   100.06374   276.90920     0.03031    79.93626    83.09080     0.03031
    10.50000   100.05978   277.10155     0.03032    79.94022    82.89845     0.03032
    10.60000   100.05571   277.29379     0.03033    79.94429    82.70621     0.03033
    10.70000   100.05153   277.48590     0.03034    79.94847    82.51410     0.03034
    10.80000   100.04724   277.67788     0.03034    79.95276    82.32212     0.03034
    10.90000   100.04285   277.86973     0.03035    79.95715    82.13027     0.03035
    11.00000   100.03835   278.06145     0.03036    79.96165    81.93855     0.03036
    11.10000   100.03374   278.25302     0.03037    79.96626    81.74698     0.03037
    11.20000   100.02902   278.44445     0.03038    79.97098    81.55555     0.03038
    11.30000   100.02420   278.63574     0.03039    79.97580    81.36426     0.03039
    11.40000   100.01928   278.82686     0.03040    79.98072    81.17314     0.03040
    11.50000   100.01424   279.01784     0.03041    79.98576    80.98216     0.03041
    11.60000   100.00911   279.20865     0.03042    79.99089    80.79135     0.03042
    11.70000   100.00387   279.39930     0.03043    79.99613    80.60070     0.03043
    11.80000    99.99852   279.58978     0.03044    80.00148    80.41022     0.03044
    11.90000    99.99307   279.78009     0.03045    80.00693    80.21991     0.03045
    12.00000    99.98752   279.97022     0.03046    80.01248    80.02978     0.03046
    12.10000    99.98186   280.16017     0.03048    80.01814    79.83983     0.03048
    12.20000    99.97611   280.34993     0.03049    80.02389    79.65007     0.03049
    12.30000    99.97025   280.53951     0.03050    80.02975    79.46049     0.03050
    12.40000    99.96429   280.72890     0.03051    80.03571    79.27110     0.03051
    12.50000    99.95823   280.91809     0.03053    80.04177    79.08191     0.03053
    12.60000    99.95207   281.10708     0.03054    80.04793    78.89292     0.03054
    12.70000    99.94581   281.29587     0.03055    80.05419    78.70413     0.03055
    12.80000    99.93945   281.48445     0.03057    80.06055    78.51555     0.03057
    12.90000    99.93299   281.67282     0.03058    80.06701    78.32718     0.03058
    13.00000    99.92643   281.86097     0.03060    80.07357    78.13903     0.03060
    13.10000    99.91978   282.04891     0.03061    80.08022    77.95109     0.03061
    13.20000    99.91303   282.23662     0.03063    80.08697    77.76338     0.03063
    13.30000    99.90618   282.42411     0.03065    80.09382    77.57589     0.03065
    13.40000    99.89924   282.61138     0.03066    80.10076    77.38862     0.03066
    13.50000    99.89220   282.79840     0.03068    80.10780    77.20160     0.03068
    13.60000    99.88507   282.98520     0.03070    80.11493    77.01480     0.03070
    13.70000    99.87784   283.17175     0.03071    80.12216    76.82825     0.03071
    13.80000    99.87052   283.35806     0.03073    80.12948    76.64194     0.03073
    13.90000    99.86311   283.54412     0.03075    80.13689    76.45588     0.03075
    14.00000    99.85560   283.72994     0.03077    80.14440    76.27006     0.03077
    14.10000    99.84800   283.91550     0.03078    80.15200    76.08450     0.03078
    14.20000    99.84031   284.10080     0.03080    80.15969    75.89920     0.03080
    14.30000    99.83254   284.28585     0.03082    80.16746    75.71415     0.03082
    14.40000    99.82467   284.47063     0.03084    80.17533    75.52937     0.03084
    14.50000    99.81671   284.65514     0.03086    80.18329    75.34486     0.03086
    14.60000    99.80866   284.83939     0.03088    80.19134    75.16061     0.03088
    14.70000    99.80053   285.02336     0.03090    80.19947    74.97664     0.03090
    14.80000    99.79231   285.20705     0.03092    80.20769    74.79295     0.03092
    14.90000    99.78400   285.39047     0.03094    80.21600    74.60953     0.03094
    15.00000    99.77561   285.57361     0.03096    80.22439    74.42639     0.03096
    15.10000    99.76713   285.75646     0.03099    80.23287    74.24354     0.03099
    15.20000    99.75856   285.93902     0.03101    80.24144    74.06098     0.03101
    15.30000    99.74992   286.12129     0.03103    80.25008    73.87871     0.03103
    15.40000    99.74119   286.30326     0.03105    80.25881    73.69674     0.03105
    15.50000    99.73238   286.48494     0.03107    80.26762    73.51506     0.03107
    15.60000    99.72348   286.66632     0.03110    80.27652    73.33368     0.03110
    15.70000    99.71451   286.84739     0.03112    80.28549    73.15261     0.03112
    15.80000    99.70545   287.02816     0.03114    80.29455    72.97184     0.03114
    15.90000    99.69631   287.20862     0.03117    80.30369    72.79138     0.03117
    16.00000    99.68710   287.38877     0.03119    80.31290    72.61123     0.03119
    16.10000    99.67781   287.56861     0.03122    80.32219    72.43139     0.03122
    16.20000    99.66844   287.74813     0.03124    80.33156    72.25187     0.03124
    16.30000    99.65899   287.92733     0.03127    80.34101    72.07267     0.03127
    16.40000    99.64947   288.10620     0.03129    80.35053    71.89380     0.03129
    16.50000    99.63987   288.28476     0.03132    80.36013    71.71524     0.03132
    16.60000    99.63019   288.46298     0.03134    80.36981    71.53702     0.03134
    16.70000    99.62045   288.64088     0.03137    80.37955    71.35912     0.03137
    16.80000    99.61063   288.81844     0.03140    80.38937    71.18156     0.03140
    16.90000    99.60073   288.99567     0.03142    80.39927    71.00433     0.03142
    17.00000    99.59077   289.17256     0.03145    80.40923    70.82744     0.03145
    17.10000    99.58073   289.34911     0.03148    80.41927    70.65089     0.03148
    17.20000    99.57063   289.52532     0.03151    80.42937    70.47468     0.03151
    17.30000    99.56045   289.70119     0.03153    80.43955    70.29881     0.03153
    17.40000    99.55021   289.87671     0.03156    80.44979    70.12329     0.03156
    17.50000    99.53989   290.05188     0.03159    80.46011    69.94812     0.03159
    17.60000    99.52951   290.22670     0.03162    80.47049    69.77330     0.03162
    17.70000    99.51907   290.40117     0.03165    80.48093    69.59883     0.03165
    17.80000    99.50855   290.57528     0.03168    80.49145    69.42472     0.03168
    17.90000    99.49798   290.74903     0.03171    80.50202    69.25097     0.03171
    18.00000    99.48733   290.92243     0.03174    80.51267    69.07757     0.03174
    18.10000    99.47663   291.09546     0.03177    80.52337    68.90454     0.03177
    18.20000    99.46586   291.26813     0.03180    80.53414    68.73187     0.03180
    18.30000    99.45503   291.44044     0.03183    80.54497    68.55956     0.03183
    18.40000    99.44414   291.61238     0.03186    80.55586    68.38762     0.03186
    18.50000    99.43318   291.78394     0.03189    80.56682    68.21606     0.03189
    18.60000    99.42217   291.95514     0.03192    80.57783    68.04486     0.03192
    18.70000    99.41110   292.12597     0.03196    80.58890    67.87403     0.03196
    18.80000    99.39997   292.29642     0.03199    80.60003    67.70358     0.03199
    18.90000    99.38878   292.46649     0.03202    80.61122    67.53351     0.03202
    19.00000    99.37754   292.63619     0.03205    80.62246    67.36381     0.03205
    19.10000    99.36624   292.80550     0.03209    80.63376    67.19450     0.03209
    19.20000    99.35488   292.97444     0.03212    80.64512    67.02556     0.03212
    19.30000    99.34347   293.14299     0.03215    80.65653    66.85701     0.03215
    19.40000    99.33200   293.31116     0.03219    80.66800    66.68884     0.03219
    19.50000    99.32048   293.47894     0.03222    80.67952    66.52106     0.03222
    19.60000    99.30891   293.64633     0.03226    80.69109    66.35367     0.03226
    19.70000    99.29729   293.81333     0.03229    80.70271    66.18667     0.03229
    19.80000    99.28562   293.97994     0.03232    80.71438    66.02006     0.03232
    19.90000    99.27389   294.14617     0.03236    80.72611    65.85383     0.03236
    20.00000    99.26212   294.31199     0.03239    80.73788    65.68801     0.03239
    20.10000    99.25030   294.47742     0.03243    80.74970    65.52258     0.03243
    20.20000    99.23843   294.64246     0.03247    80.76157    65.35754     0.03247
    20.30000    99.22651   294.80710     0.03250    80.77349    65.19290     0.03250
    20.40000    99.21454   294.97134     0.03254    80.78546    65.02866     0.03254
    20.50000    99.20253   295.13518     0.03258    80.79747    64.86482     0.03258
    20.60000    99.19048   295.29862     0.03261    80.80952    64.70138     0.03261
    20.70000    99.17838   295.46165     0.03265    80.82162    64.53835     0.03265
    20.80000    99.16623   295.62429     0.03269    80.83377    64.37571     0.03269
    20.90000    99.15405   295.78652     0.03272    80.84595    64.21348     0.03272
    21.00000    99.14182   295.94834     0.03276    80.85818    64.05166     0.03276
    21.10000    99.12954   296.10975     0.03280    80.87046    63.89025     0.03280
    21.20000    99.11723   296.27076     0.03284    80.88277    63.72924     0.03284
    21.30000    99.10488   296.43136     0.03288    80.89512    63.56864     0.03288
    21.40000    99.09249   296.59155     0.03292    80.90751    63.40845     0.03292
    21.50000    99.08006   296.75133     0.03296    80.91994    63.24867     0.03296
    21.60000    99.06759   296.91070     0.03300    80.93241    63.08930     0.03300
    21.70000    99.05508   297.06966     0.03304    80.94492    62.93034     0.03304
    21.80000    99.04254   297.22820     0.03307    80.95746    62.77180     0.03307
    21.90000    99.02996   297.38633     0.03312    80.97004    62.61367     0.03312
    22.00000    99.01735   297.54405     0.03316    80.98265    62.45595     0.03316
    22.10000    99.00470   297.70134     0.03320    80.99530    62.29866     0.03320
    22.20000    98.99201   297.85823     0.03324    81.00799    62.14177     0.03324
    22.30000    98.97930   298.01470     0.03328    81.02070    61.98530     0.03328
    22.40000    98.96655   298.17074     0.03332    81.03345    61.82926     0.03332
    22.50000    98.95377   298.32638     0.03336    81.04623    61.67362     0.03336
    22.60000    98.94095   298.48159     0.03340    81.05905    61.51841     0.03340
    22.70000    98.92811   298.63638     0.03344    81.07189    61.36362     0.03344
    22.80000    98.91524   298.79076     0.03349    81.08476    61.20924     0.03349
    22.90000    98.90233   298.94471     0.03353    81.09767    61.05529     0.03353
    23.00000    98.88940   299.09824     0.03357    81.11060    60.90176     0.03357
    23.10000    98.87644   299.25136     0.03362    81.12356    60.74864     0.03362
    23.20000    98.86346   299.40405     0.03366    81.13654    60.59595     0.03366
    23.30000    98.85044   299.55631     0.03370    81.14956    60.44369     0.03370
    23.40000    98.83740   299.70816     0.03375    81.16260    60.29184     0.03375
    23.50000    98.82434   299.85958     0.03379    81.17566    60.14042     0.03379
    23.60000    98.81125   300.01058     0.03383    81.18875    59.98942     0.03383
    23.70000    98.79813   300.16116     0.03388    81.20187    59.83884     0.03388
    23.80000    98.78499   300.31131     0.03392    81.21501    59.68869     0.03392
    23.90000    98.77183   300.46104     0.03397    81.22817    59.53896     0.03397
    24.00000    98.75865   300.61035     0.03401    81.24135    59.38965     0.03401
    24.10000    98.74544   300.75923     0.03406    81.25456    59.24077     0.03406
    24.20000    98.73221   300.90769     0.03410    81.26779    59.09231     0.03410
    24.30000    98.71897   301.05572     0.03415    81.28103    58.94428     0.03415
    24.40000    98.70570   301.20333     0.03419    81.29430    58.79667     0.03419
    24.50000    98.69241   301.35051     0.03424    81.30759    58.64949     0.03424
    24.60000    98.67910   301.49727     0.03429    81.32090    58.50273     0.03429
    24.70000    98.66578   301.64360     0.03433    81.33422    58.35640     0.03433
    24.80000    98.65244   301.78951     0.03438    81.34756    58.21049     0.03438
    24.90000    98.63908   301.93499     0.03443    81.36092    58.06501     0.03443
    25.00000    98.62570   302.08005     0.03447    81.37430    57.91995     0.03447
    25.10000    98.61231   302.22468     0.03452    81.38769    57.77532     0.03452
    25.20000    98.59890   302.36889     0.03457    81.40110    57.63111     0.03457
    25.30000    98.58548   302.51267     0.03462    81.41452    57.48733     0.03462
    25.40000    98.57204   302.65603     0.03466    81.42796    57.34397     0.03466
    25.50000    98.55859   302.79896     0.03471    81.44141    57.20104     0.03471
    25.60000    98.54512   302.94147     0.03476    81.45488    57.05853     0.03476
    25.70000    98.53165   303.08355     0.03481    81.46835    56.91645     0.03481
    25.80000    98.51816   303.22521     0.03486    81.48184    56.77479     0.03486
    25.90000    98.50465   303.36644     0.03491    81.49535    56.63356     0.03491
    26.00000    98.49114   303.50726     0.03496    81.50886    56.49274     0.03496
    26.10000    98.47762   303.64764     0.03501    81.52238    56.35236     0.03501
    26.20000    98.46409   303.78761     0.03506    81.53591    56.21239     0.03506
    26.30000    98.45054   303.92715     0.03511    81.54946    56.07285     0.03511
    26.40000    98.43699   304.06627     0.03516    81.56301    55.93373     0.03516
    26.50000    98.42343   304.20496     0.03521    81.57657    55.79504     0.03521
    26.60000    98.40986   304.34323     0.03526    81.59014    55.65677     0.03526
    26.70000    98.39628   304.48109     0.03531    81.60372    55.51891     0.03531
    26.80000    98.38270   304.61852     0.03536    81.61730    55.38148     0.03536
    26.90000    98.36911   304.75552     0.03541    81.63089    55.24448     0.03541
    27.00000    98.35551   304.89211     0.03546    81.64449    55.10789     0.03546
    27.10000    98.34191   305.02828     0.03551    81.65809    54.97172     0.03551
    27.20000    98.32830   305.16403     0.03556    81.67170    54.83597     0.03556
    27.30000    98.31469   305.29935     0.03561    81.68531    54.70065     0.03561
    27.40000    98.30107   305.43426     0.03567    81.69893    54.56574     0.03567
    27.50000    98.28745   305.56875     0.03572    81.71255    54.43125     0.03572
    27.60000    98.27382   305.70282     0.03577    81.72618    54.29718     0.03577
    27.70000    98.26019   305.83648     0.03582    81.73981    54.16352     0.03582
    27.80000    98.24656   305.96972     0.03588    81.75344    54.03028     0.03588
    27.90000    98.23293   306.10254     0.03593    81.76707    53.89746     0.03593
    28.00000    98.21929   306.23494     0.03598    81.78071    53.76506     0.03598
    28.10000    98.20566   306.36693     0.03604    81.79434    53.63307     0.03604
    28.20000    98.19202   306.49850     0.03609    81.80798    53.50150     0.03609
    28.30000    98.17838   306.62966     0.03614    81.82162    53.37034     0.03614
    28.40000    98.16475   306.76041     0.03620    81.83525    53.23959     0.03620
    28.50000    98.15111   306.89074     0.03625    81.84889    53.10926     0.03625
    28.60000    98.13747   307.02066     0.03630    81.86253    52.97934     0.03630
    28.70000    98.12384   307.15017     0.03636    81.87616    52.84983     0.03636
    28.80000    98.11020   307.27927     0.03641    81.88980    52.72073     0.03641
    28.90000    98.09657   307.40795     0.03647    81.90343    52.59205     0.03647
    29.00000    98.08294   307.53623     0.03652    81.91706    52.46377     0.03652
    29.10000    98.06931   307.66410     0.03658    81.93069    52.33590     0.03658
    29.20000    98.05569   307.79156     0.03663    81.94431    52.20844     0.03663
    29.30000    98.04207   307.91861     0.03669    81.95793    52.08139     0.03669
    29.40000    98.02845   308.04525     0.03674    81.97155    51.95475     0.03674
    29.50000    98.01484   308.17149     0.03680    81.98516    51.82851     0.03680
    29.60000    98.00123   308.29732     0.03686    81.99877    51.70268     0.03686
    29.70000    97.98763   308.42275     0.03691    82.01237    51.57725     0.03691
    29.80000    97.97403   308.54777     0.03697    82.02597    51.45223     0.03697
    29.90000    97.96044   308.67240     0.03702    82.03956    51.32760     0.03702
    30.00000    97.94685   308.79661     0.03708    82.05315    51.20339     0.03708
    30.10000    97.93327   308.92043     0.03714    82.06673    51.07957     0.03714
    30.20000    97.91970   309.04384     0.03719    82.08030    50.95616     0.03719
    30.30000    97.90613   309.16686     0.03725    82.09387    50.83314     0.03725
    30.40000    97.89257   309.28948     0.03731    82.10743    50.71052     0.03731
    30.50000    97.87902   309.41169     0.03737    82.12098    50.58831     0.03737
    30.60000    97.86548   309.53351     0.03742    82.13452    50.46649     0.03742
    30.70000    97.85194   309.65494     0.03748    82.14806    50.34506     0.03748
    30.80000    97.83841   309.77596     0.03754    82.16159    50.22404     0.03754
    30.90000    97.82489   309.89660     0.03760    82.17511    50.10340     0.03760
    31.00000    97.81138   310.01684     0.03765    82.18862    49.98316     0.03765
    31.10000    97.79788   310.13668     0.03771    82.20212    49.86332     0.03771
    31.20000    97.78439   310.25613     0.03777    82.21561    49.74387     0.03777
    31.30000    97.77091   310.37520     0.03783    82.22909    49.62480     0.03783
    31.40000    97.75744   310.49387     0.03789    82.24256    49.50613     0.03789
    31.50000    97.74398   310.61215     0.03795    82.25602    49.38785     0.03795
    31.60000    97.73054   310.73004     0.03801    82.26946    49.26996     0.03801
    31.70000    97.71710   310.84755     0.03807    82.28290    49.15245     0.03807
    31.80000    97.70367   310.96467     0.03812    82.29633    49.03533     0.03812
    31.90000    97.69026   311.08140     0.03818    82.30974    48.91860     0.03818
    32.00000    97.67685   311.19775     0.03824    82.32315    48.80225     0.03824
    32.10000    97.66346   311.31371     0.03830    82.33654    48.68629     0.03830
    32.20000    97.65009   311.42929     0.03836    82.34991    48.57071     0.03836
    32.30000    97.63672   311.54449     0.03842    82.36328    48.45551     0.03842
    32.40000    97.62337   311.65931     0.03848    82.37663    48.34069     0.03848
    32.50000    97.61003   311.77375     0.03854    82.38997    48.22625     0.03854
    32.60000    97.59670   311.88780     0.03861    82.40330    48.11220     0.03861
    32.70000    97.58339   312.00149     0.03867    82.41661    47.99851     0.03867
    32.80000    97.57009   312.11479     0.03873    82.42991    47.88521     0.03873
    32.90000    97.55681   312.22772     0.03879    82.44319    47.77228     0.03879
    33.00000    97.54354   312.34027     0.03885    82.45646    47.65973     0.03885
    33.10000    97.53028   312.45245     0.03891    82.46972    47.54755     0.03891
    33.20000    97.51704   312.56425     0.03897    82.48296    47.43575     0.03897
    33.30000    97.50381   312.67569     0.03903    82.49619    47.32431     0.03903
    33.40000    97.49060   312.78675     0.03909    82.50940    47.21325     0.03909
    33.50000    97.47741   312.89744     0.03916    82.52259    47.10256     0.03916
    33.60000    97.46423   313.00777     0.03922    82.53577    46.99223     0.03922
    33.70000    97.45107   313.11772     0.03928    82.54893    46.88228     0.03928
    33.80000    97.43792   313.22731     0.03934    82.56208    46.77269     0.03934
    33.90000    97.42479   313.33653     0.03941    82.57521    46.66347     0.03941
    34.00000    97.41167   313.44539     0.03947    82.58833    46.55461     0.03947
    34.10000    97.39857   313.55389     0.03953    82.60143    46.44611     0.03953
    34.20000    97.38549   313.66202     0.03959    82.61451    46.33798     0.03959
    34.30000    97.37243   313.76979     0.03966    82.62757    46.23021     0.03966
    34.40000    97.35938   313.87720     0.03972    82.64062    46.12280     0.03972
    34.50000    97.34635   313.98425     0.03978    82.65365    46.01575     0.03978
    34.60000    97.33334   314.09094     0.03985    82.66666    45.90906     0.03985
    34.70000    97.32034   314.19728     0.03991    82.67966    45.80272     0.03991
    34.80000    97.30737   314.30326     0.03997    82.69263    45.69674     0.03997
    34.90000    97.29441   314.40888     0.04004    82.70559    45.59112     0.04004
    35.00000    97.28147   314.51415     0.04010    82.71853    45.48585     0.04010
    35.10000    97.26855   314.61907     0.04016    82.73145    45.38093     0.04016
    35.20000    97.25564   314.72363     0.04023    82.74436    45.27637     0.04023
    35.30000    97.24276   314.82785     0.04029    82.75724    45.17215     0.04029
    35.40000    97.22989   314.93171     0.04036    82.77011    45.06829     0.04036
    35.50000    97.21704   315.03523     0.04042    82.78296    44.96477     0.04042
    35.60000    97.20422   315.13840     0.04049    82.79578    44.86160     0.04049
    35.70000    97.19141   315.24122     0.04055    82.80859    44.75878     0.04055
    35.80000    97.17862   315.34370     0.04061    82.82138    44.65630     0.04061
    35.90000    97.16585   315.44583     0.04068    82.83415    44.55417     0.04068
    36.00000    97.15310   315.54762     0.04074    82.84690    44.45238     0.04074
    36.10000    97.14037   315.64906     0.04081    82.85963    44.35094     0.04081
    36.20000    97.12766   315.75017     0.04087    82.87234    44.24983     0.04087
    36.30000    97.11497   315.85094     0.04094    82.88503    44.14906     0.04094
    36.40000    97.10230   315.95136     0.04101    82.89770    44.04864     0.04101
    36.50000    97.08965   316.05145     0.04107    82.91035    43.94855     0.04107
    36.60000    97.07702   316.15121     0.04114    82.92298    43.84879     0.04114
    36.70000    97.06441   316.25062     0.04120    82.93559    43.74938     0.04120
    36.80000    97.05182   316.34971     0.04127    82.94818    43.65029     0.04127
    36.90000    97.03925   316.44846     0.04133    82.96075    43.55154     0.04133
    37.00000    97.02671   316.54688     0.04140    82.97329    43.45312     0.04140
    37.10000    97.01418   316.64496     0.04147    82.98582    43.35504     0.04147
    37.20000    97.00168   316.74272     0.04153    82.99832    43.25728     0.04153
    37.30000    96.98920   316.84015     0.04160    83.01080    43.15985     0.04160
    37.40000    96.97673   316.93725     0.04167    83.02327    43.06275     0.04167
    37.50000    96.96429   317.03402     0.04173    83.03571    42.96598     0.04173
    37.60000    96.95188   317.13047     0.04180    83.04812    42.86953     0.04180
    37.70000    96.93948   317.22659     0.04187    83.06052    42.77341     0.04187
    37.80000    96.92710   317.32239     0.04193    83.07290    42.67761     0.04193
    37.90000    96.91475   317.41787     0.04200    83.08525    42.58213     0.04200
    38.00000    96.90242   317.51303     0.04207    83.09758    42.48697     0.04207
    38.10000    96.89011   317.60787     0.04214    83.10989    42.39213     0.04214
    38.20000    96.87782   317.70239     0.04220    83.12218    42.29761     0.04220
    38.30000    96.86556   317.79659     0.04227    83.13444    42.20341     0.04227
    38.40000    96.85331   317.89047     0.04234    83.14669    42.10953     0.04234
    38.50000    96.84109   317.98404     0.04241    83.15891    42.01596     0.04241
    38.60000    96.82889   318.07729     0.04248    83.17111    41.92271     0.04248
    38.70000    96.81672   318.17023     0.04254    83.18328    41.82977     0.04254
    38.80000    96.80456   318.26286     0.04261    83.19544    41.73714     0.04261
    38.90000    96.79243   318.35518     0.04268    83.20757    41.64482     0.04268
    39.00000    96.78032   318.44719     0.04275    83.21968    41.55281     0.04275
    39.10000    96.76824   318.53889     0.04282    83.23176    41.46111     0.04282
    39.20000    96.75618   318.63028     0.04288    83.24382    41.36972     0.04288
    39.30000    96.74414   318.72136     0.04295    83.25586    41.27864     0.04295
    39.40000    96.73212   318.81214     0.04302    83.26788    41.18786     0.04302
    39.50000    96.72013   318.90261     0.04309    83.27987    41.09739     0.04309
    39.60000    96.70816   318.99278     0.04316    83.29184    41.00722     0.04316
    39.70000    96.69621   319.08265     0.04323    83.30379    40.91735     0.04323
    39.80000    96.68428   319.17221     0.04330    83.31572    40.82779     0.04330
    39.90000    96.67238   319.26148     0.04337    83.32762    40.73852     0.04337
    40.00000    96.66050   319.35045     0.04344    83.33950    40.64955     0.04344
