 # applied field (T), theta (degree), phi (degree), abs for RE 1-2
     0.00000   177.27601   315.00000     0.09707   177.27601   225.00000     0.09707
     0.10000   177.86234   279.76113     0.09701   176.09214   206.62983     0.09699
     0.20000   177.41591   242.27206     0.09699   174.70418   197.31741     0.09696
     0.30000   176.29296   221.73968     0.09702   173.24168   191.96043     0.09696
     0.40000   174.92676   211.46891     0.09709   171.74962   188.53335     0.09701
     0.50000   173.38782   205.41841     0.09721   170.16118   186.05651     0.09711
     0.60000   171.89562   201.86277     0.09736   168.65852   184.35332     0.09724
     0.70000   170.38995   199.43307     0.09755   167.16157   183.05134     0.09740
     0.80000   168.79543   197.58719     0.09780   165.58940   181.97362     0.09762
     0.90000   167.20479   196.21532     0.09809   164.03115   181.10888     0.09788
     1.00000   165.70780   195.21308     0.09840   162.57234   180.43108     0.09816
     1.10000   164.13701   194.36751     0.09876   161.04780   179.83022     0.09849
     1.20000   162.49703   193.64936     0.09919   159.46215   179.29500     0.09887
     1.30000   160.95786   193.09448     0.09962   157.97964   178.85593     0.09927
     1.40000   159.35515   192.60686     0.10011   156.44072   178.45374     0.09971
     1.50000   157.77391   192.19892     0.10064   154.92722   178.09967     0.10019
     1.60000   156.21530   191.85396     0.10119   153.43980   177.78451     0.10069
     1.70000   154.60219   191.54412     0.10181   151.90448   177.48890     0.10123
     1.80000   153.01577   191.27971     0.10244   150.39877   177.22199     0.10180
     1.90000   151.45648   191.05253     0.10310   148.92280   176.97884     0.10239
     2.00000   149.85061   190.84602     0.10382   147.40652   176.74627     0.10301
     2.10000   148.27485   190.66786     0.10454   145.92272   176.53175     0.10365
     2.20000   146.65789   190.50570     0.10532   144.40406   176.32448     0.10433
     2.30000   145.00360   190.35870     0.10615   142.85469   176.12365     0.10503
     2.40000   143.38374   190.23196     0.10698   141.34238   175.93524     0.10574
     2.50000   141.73065   190.11712     0.10785   139.80409   175.75070     0.10647
     2.60000   139.98229   190.00899     0.10879   138.18299   175.56314     0.10725
     2.70000   138.27314   189.91651     0.10972   136.60534   175.38433     0.10801
     2.80000   136.53890   189.83376     0.11068   135.01234   175.20699     0.10878
     2.90000   134.72066   189.75693     0.11169   133.35148   175.02492     0.10958
     3.00000   132.88331   189.68899     0.11271   131.68442   174.84308     0.11037
     3.10000   130.96943   189.62666     0.11377   129.96117   174.65550     0.11117
     3.20000   128.92622   189.56781     0.11488   128.13780   174.45676     0.11200
     3.30000   126.81563   189.51441     0.11599   126.27382   174.25175     0.11282
     3.40000   124.53056   189.46256     0.11715   124.27864   174.03060     0.11368
     3.50000   122.07756   189.41200     0.11834   122.16314   173.79415     0.11456
     3.60000   119.35642   189.35915     0.11957   119.84470   173.53479     0.11550
     3.70000   116.32233   189.30108     0.12083   117.28681   173.25201     0.11653
     3.80000   112.67777   189.22718     0.12216   114.22966   172.92973     0.11778
     3.90000   107.98767   189.11763     0.12362   110.26589   172.55678     0.11945
     4.00000   101.05010   188.90897     0.12530   104.20816   172.11867     0.12211
     4.10000    88.10883   188.31754     0.12729    91.89117   171.68246     0.12729
     4.20000    88.10728   188.32435     0.12717    91.89272   171.67565     0.12717
     4.30000    88.10574   188.33118     0.12704    91.89426   171.66882     0.12704
     4.40000    88.10419   188.33802     0.12691    91.89581   171.66198     0.12691
     4.50000    88.10264   188.34488     0.12679    91.89736   171.65512     0.12679
     4.60000    88.10109   188.35174     0.12666    91.89891   171.64826     0.12666
     4.70000    88.09953   188.35862     0.12654    91.90047   171.64138     0.12654
     4.80000    88.09797   188.36551     0.12641    91.90203   171.63449     0.12641
     4.90000    88.09641   188.37242     0.12629    91.90359   171.62758     0.12629
     5.00000    88.09485   188.37934     0.12616    91.90515   171.62066     0.12616
     5.10000    88.09328   188.38627     0.12604    91.90672   171.61373     0.12604
     5.20000    88.09171   188.39321     0.12591    91.90829   171.60679     0.12591
     5.30000    88.09014   188.40017     0.12579    91.90986   171.59983     0.12579
     5.40000    88.08856   188.40714     0.12566    91.91144   171.59286     0.12566
     5.50000    88.08698   188.41412     0.12554    91.91302   171.58588     0.12554
     5.60000    88.08540   188.42112     0.12541    91.91460   171.57888     0.12541
     5.70000    88.08381   188.42813     0.12529    91.91619   171.57187     0.12529
     5.80000    88.08223   188.43515     0.12516    91.91777   171.56485     0.12516
     5.90000    88.08064   188.44218     0.12504    91.91936   171.55782     0.12504
     6.00000    88.07904   188.44923     0.12491    91.92096   171.55077     0.12491
     6.10000    88.07744   188.45629     0.12478    91.92256   171.54371     0.12478
     6.20000    88.07585   188.46337     0.12466    91.92415   171.53663     0.12466
     6.30000    88.07424   188.47046     0.12453    91.92576   171.52954     0.12453
     6.40000    88.07264   188.47756     0.12441    91.92736   171.52244     0.12441
     6.50000    88.07103   188.48468     0.12428    91.92897   171.51532     0.12428
     6.60000    88.06942   188.49181     0.12416    91.93058   171.50819     0.12416
     6.70000    88.06780   188.49895     0.12403    91.93220   171.50105     0.12403
     6.80000    88.06618   188.50610     0.12391    91.93382   171.49390     0.12391
     6.90000    88.06456   188.51327     0.12378    91.93544   171.48673     0.12378
     7.00000    88.06294   188.52046     0.12366    91.93706   171.47954     0.12366
     7.10000    88.06131   188.52766     0.12353    91.93869   171.47234     0.12353
     7.20000    88.05968   188.53487     0.12341    91.94032   171.46513     0.12341
     7.30000    88.05805   188.54209     0.12328    91.94195   171.45791     0.12328
     7.40000    88.05641   188.54933     0.12316    91.94359   171.45067     0.12316
     7.50000    88.05477   188.55658     0.12303    91.94523   171.44342     0.12303
     7.60000    88.05313   188.56385     0.12291    91.94687   171.43615     0.12291
     7.70000    88.05148   188.57113     0.12278    91.94852   171.42887     0.12278
     7.80000    88.04984   188.57842     0.12266    91.95016   171.42158     0.12266
     7.90000    88.04818   188.58573     0.12253    91.95182   171.41427     0.12253
     8.00000    88.04653   188.59305     0.12241    91.95347   171.40695     0.12241
     8.10000    88.04487   188.60039     0.12228    91.95513   171.39961     0.12228
     8.20000    88.04321   188.60774     0.12216    91.95679   171.39226     0.12216
     8.30000    88.04154   188.61511     0.12203    91.95846   171.38489     0.12203
     8.40000    88.03988   188.62249     0.12191    91.96012   171.37751     0.12191
     8.50000    88.03821   188.62988     0.12178    91.96179   171.37012     0.12178
     8.60000    88.03653   188.63729     0.12166    91.96347   171.36271     0.12166
     8.70000    88.03486   188.64471     0.12153    91.96514   171.35529     0.12153
     8.80000    88.03317   188.65214     0.12141    91.96683   171.34786     0.12141
     8.90000    88.03149   188.65960     0.12128    91.96851   171.34040     0.12128
     9.00000    88.02980   188.66706     0.12116    91.97020   171.33294     0.12116
     9.10000    88.02811   188.67454     0.12103    91.97189   171.32546     0.12103
     9.20000    88.02642   188.68203     0.12091    91.97358   171.31797     0.12091
     9.30000    88.02472   188.68954     0.12079    91.97528   171.31046     0.12079
     9.40000    88.02302   188.69707     0.12066    91.97698   171.30293     0.12066
     9.50000    88.02132   188.70461     0.12054    91.97868   171.29539     0.12054
     9.60000    88.01961   188.71216     0.12041    91.98039   171.28784     0.12041
     9.70000    88.01790   188.71973     0.12029    91.98210   171.28027     0.12029
     9.80000    88.01619   188.72731     0.12016    91.98381   171.27269     0.12016
     9.90000    88.01448   188.73491     0.12004    91.98552   171.26509     0.12004
    10.00000    88.01276   188.74252     0.11991    91.98724   171.25748     0.11991
    10.10000    88.01103   188.75015     0.11979    91.98897   171.24985     0.11979
    10.20000    88.00931   188.75779     0.11966    91.99069   171.24221     0.11966
    10.30000    88.00758   188.76545     0.11954    91.99242   171.23455     0.11954
    10.40000    88.00584   188.77312     0.11941    91.99416   171.22688     0.11941
    10.50000    88.00411   188.78081     0.11929    91.99589   171.21919     0.11929
    10.60000    88.00237   188.78851     0.11916    91.99763   171.21149     0.11916
    10.70000    88.00062   188.79623     0.11904    91.99938   171.20377     0.11904
    10.80000    87.99888   188.80396     0.11892    92.00112   171.19604     0.11892
    10.90000    87.99713   188.81171     0.11879    92.00287   171.18829     0.11879
    11.00000    87.99537   188.81948     0.11867    92.00463   171.18052     0.11867
    11.10000    87.99362   188.82726     0.11854    92.00638   171.17274     0.11854
    11.20000    87.99186   188.83505     0.11842    92.00814   171.16495     0.11842
    11.30000    87.99009   188.84286     0.11829    92.00991   171.15714     0.11829
    11.40000    87.98832   188.85069     0.11817    92.01168   171.14931     0.11817
    11.50000    87.98655   188.85853     0.11804    92.01345   171.14147     0.11804
    11.60000    87.98478   188.86639     0.11792    92.01522   171.13361     0.11792
    11.70000    87.98300   188.87426     0.11779    92.01700   171.12574     0.11779
    11.80000    87.98122   188.88215     0.11767    92.01878   171.11785     0.11767
    11.90000    87.97943   188.89005     0.11755    92.02057   171.10995     0.11755
    12.00000    87.97765   188.89797     0.11742    92.02235   171.10203     0.11742
    12.10000    87.97585   188.90591     0.11730    92.02415   171.09409     0.11730
    12.20000    87.97406   188.91386     0.11717    92.02594   171.08614     0.11717
    12.30000    87.97226   188.92183     0.11705    92.02774   171.07817     0.11705
    12.40000    87.97046   188.92982     0.11692    92.02954   171.07018     0.11692
    12.50000    87.96865   188.93782     0.11680    92.03135   171.06218     0.11680
    12.60000    87.96684   188.94583     0.11667    92.03316   171.05417     0.11667
    12.70000    87.96503   188.95387     0.11655    92.03497   171.04613     0.11655
    12.80000    87.96321   188.96191     0.11643    92.03679   171.03809     0.11643
    12.90000    87.96139   188.96998     0.11630    92.03861   171.03002     0.11630
    13.00000    87.95956   188.97806     0.11618    92.04044   171.02194     0.11618
    13.10000    87.95774   188.98616     0.11605    92.04226   171.01384     0.11605
    13.20000    87.95590   188.99427     0.11593    92.04410   171.00573     0.11593
    13.30000    87.95407   189.00241     0.11580    92.04593   170.99759     0.11580
    13.40000    87.95223   189.01055     0.11568    92.04777   170.98945     0.11568
    13.50000    87.95039   189.01872     0.11556    92.04961   170.98128     0.11556
    13.60000    87.94854   189.02690     0.11543    92.05146   170.97310     0.11543
    13.70000    87.94669   189.03510     0.11531    92.05331   170.96490     0.11531
    13.80000    87.94484   189.04331     0.11518    92.05516   170.95669     0.11518
    13.90000    87.94298   189.05154     0.11506    92.05702   170.94846     0.11506
    14.00000    87.94112   189.05979     0.11494    92.05888   170.94021     0.11494
    14.10000    87.93925   189.06805     0.11481    92.06075   170.93195     0.11481
    14.20000    87.93738   189.07634     0.11469    92.06262   170.92366     0.11469
    14.30000    87.93551   189.08463     0.11456    92.06449   170.91537     0.11456
    14.40000    87.93363   189.09295     0.11444    92.06637   170.90705     0.11444
    14.50000    87.93175   189.10128     0.11431    92.06825   170.89872     0.11431
    14.60000    87.92987   189.10963     0.11419    92.07013   170.89037     0.11419
    14.70000    87.92798   189.11800     0.11407    92.07202   170.88200     0.11407
    14.80000    87.92609   189.12639     0.11394    92.07391   170.87361     0.11394
    14.90000    87.92419   189.13479     0.11382    92.07581   170.86521     0.11382
    15.00000    87.92229   189.14321     0.11369    92.07771   170.85679     0.11369
    15.10000    87.92039   189.15164     0.11357    92.07961   170.84836     0.11357
    15.20000    87.91848   189.16010     0.11345    92.08152   170.83990     0.11345
    15.30000    87.91657   189.16857     0.11332    92.08343   170.83143     0.11332
    15.40000    87.91466   189.17706     0.11320    92.08534   170.82294     0.11320
    15.50000    87.91274   189.18557     0.11307    92.08726   170.81443     0.11307
    15.60000    87.91081   189.19409     0.11295    92.08919   170.80591     0.11295
    15.70000    87.90889   189.20264     0.11283    92.09111   170.79736     0.11283
    15.80000    87.90696   189.21120     0.11270    92.09304   170.78880     0.11270
    15.90000    87.90502   189.21977     0.11258    92.09498   170.78023     0.11258
    16.00000    87.90308   189.22837     0.11245    92.09692   170.77163     0.11245
    16.10000    87.90114   189.23699     0.11233    92.09886   170.76301     0.11233
    16.20000    87.89919   189.24562     0.11221    92.10081   170.75438     0.11221
    16.30000    87.89724   189.25427     0.11208    92.10276   170.74573     0.11208
    16.40000    87.89529   189.26294     0.11196    92.10471   170.73706     0.11196
    16.50000    87.89333   189.27162     0.11184    92.10667   170.72838     0.11184
    16.60000    87.89136   189.28033     0.11171    92.10864   170.71967     0.11171
    16.70000    87.88940   189.28905     0.11159    92.11060   170.71095     0.11159
    16.80000    87.88743   189.29780     0.11146    92.11257   170.70220     0.11146
    16.90000    87.88545   189.30656     0.11134    92.11455   170.69344     0.11134
    17.00000    87.88347   189.31533     0.11122    92.11653   170.68467     0.11122
    17.10000    87.88149   189.32413     0.11109    92.11851   170.67587     0.11109
    17.20000    87.87950   189.33295     0.11097    92.12050   170.66705     0.11097
    17.30000    87.87751   189.34178     0.11084    92.12249   170.65822     0.11084
    17.40000    87.87551   189.35064     0.11072    92.12449   170.64936     0.11072
    17.50000    87.87351   189.35951     0.11060    92.12649   170.64049     0.11060
    17.60000    87.87151   189.36840     0.11047    92.12849   170.63160     0.11047
    17.70000    87.86950   189.37731     0.11035    92.13050   170.62269     0.11035
    17.80000    87.86748   189.38624     0.11023    92.13252   170.61376     0.11023
    17.90000    87.86547   189.39519     0.11010    92.13453   170.60481     0.11010
    18.00000    87.86344   189.40416     0.10998    92.13656   170.59584     0.10998
    18.10000    87.86142   189.41315     0.10986    92.13858   170.58685     0.10986
    18.20000    87.85939   189.42215     0.10973    92.14061   170.57785     0.10973
    18.30000    87.85735   189.43118     0.10961    92.14265   170.56882     0.10961
    18.40000    87.85532   189.44022     0.10948    92.14468   170.55978     0.10948
    18.50000    87.85327   189.44929     0.10936    92.14673   170.55071     0.10936
    18.60000    87.85122   189.45837     0.10924    92.14878   170.54163     0.10924
    18.70000    87.84917   189.46747     0.10911    92.15083   170.53253     0.10911
    18.80000    87.84712   189.47660     0.10899    92.15288   170.52340     0.10899
    18.90000    87.84506   189.48574     0.10887    92.15494   170.51426     0.10887
    19.00000    87.84299   189.49490     0.10874    92.15701   170.50510     0.10874
    19.10000    87.84092   189.50408     0.10862    92.15908   170.49592     0.10862
    19.20000    87.83885   189.51329     0.10850    92.16115   170.48671     0.10850
    19.30000    87.83677   189.52251     0.10837    92.16323   170.47749     0.10837
    19.40000    87.83469   189.53175     0.10825    92.16531   170.46825     0.10825
    19.50000    87.83260   189.54101     0.10813    92.16740   170.45899     0.10813
    19.60000    87.83051   189.55030     0.10800    92.16949   170.44970     0.10800
    19.70000    87.82841   189.55960     0.10788    92.17159   170.44040     0.10788
    19.80000    87.82631   189.56892     0.10776    92.17369   170.43108     0.10776
    19.90000    87.82421   189.57827     0.10763    92.17579   170.42173     0.10763
    20.00000    87.82210   189.58763     0.10751    92.17790   170.41237     0.10751
    20.10000    87.81998   189.59701     0.10739    92.18002   170.40299     0.10739
    20.20000    87.81787   189.60642     0.10726    92.18213   170.39358     0.10726
    20.30000    87.81574   189.61584     0.10714    92.18426   170.38416     0.10714
    20.40000    87.81361   189.62529     0.10702    92.18639   170.37471     0.10702
    20.50000    87.81148   189.63476     0.10689    92.18852   170.36524     0.10689
    20.60000    87.80934   189.64425     0.10677    92.19066   170.35575     0.10677
    20.70000    87.80720   189.65375     0.10665    92.19280   170.34625     0.10665
    20.80000    87.80506   189.66328     0.10652    92.19494   170.33672     0.10652
    20.90000    87.80291   189.67283     0.10640    92.19709   170.32717     0.10640
    21.00000    87.80075   189.68241     0.10628    92.19925   170.31759     0.10628
    21.10000    87.79859   189.69200     0.10615    92.20141   170.30800     0.10615
    21.20000    87.79642   189.70161     0.10603    92.20358   170.29839     0.10603
    21.30000    87.79425   189.71125     0.10591    92.20575   170.28875     0.10591
    21.40000    87.79208   189.72091     0.10578    92.20792   170.27909     0.10578
    21.50000    87.78990   189.73059     0.10566    92.21010   170.26941     0.10566
    21.60000    87.78772   189.74029     0.10554    92.21228   170.25971     0.10554
    21.70000    87.78553   189.75001     0.10541    92.21447   170.24999     0.10541
    21.80000    87.78333   189.75975     0.10529    92.21667   170.24025     0.10529
    21.90000    87.78113   189.76952     0.10517    92.21887   170.23048     0.10517
    22.00000    87.77893   189.77930     0.10504    92.22107   170.22070     0.10504
    22.10000    87.77672   189.78911     0.10492    92.22328   170.21089     0.10492
    22.20000    87.77451   189.79894     0.10480    92.22549   170.20106     0.10480
    22.30000    87.77229   189.80880     0.10467    92.22771   170.19120     0.10467
    22.40000    87.77007   189.81867     0.10455    92.22993   170.18133     0.10455
    22.50000    87.76784   189.82857     0.10443    92.23216   170.17143     0.10443
    22.60000    87.76561   189.83849     0.10430    92.23439   170.16151     0.10430
    22.70000    87.76337   189.84843     0.10418    92.23663   170.15157     0.10418
    22.80000    87.76113   189.85840     0.10406    92.23887   170.14160     0.10406
    22.90000    87.75888   189.86838     0.10394    92.24112   170.13162     0.10394
    23.00000    87.75663   189.87839     0.10381    92.24337   170.12161     0.10381
    23.10000    87.75437   189.88843     0.10369    92.24563   170.11157     0.10369
    23.20000    87.75210   189.89848     0.10357    92.24790   170.10152     0.10357
    23.30000    87.74984   189.90856     0.10344    92.25016   170.09144     0.10344
    23.40000    87.74756   189.91866     0.10332    92.25244   170.08134     0.10332
    23.50000    87.74529   189.92879     0.10320    92.25471   170.07121     0.10320
    23.60000    87.74300   189.93893     0.10308    92.25700   170.06107     0.10308
    23.70000    87.74071   189.94910     0.10295    92.25929   170.05090     0.10295
    23.80000    87.73842   189.95930     0.10283    92.26158   170.04070     0.10283
    23.90000    87.73612   189.96951     0.10271    92.26388   170.03049     0.10271
    24.00000    87.73382   189.97975     0.10258    92.26618   170.02025     0.10258
    24.10000    87.73151   189.99002     0.10246    92.26849   170.00998     0.10246
    24.20000    87.72919   190.00030     0.10234    92.27081   169.99970     0.10234
    24.30000    87.72687   190.01061     0.10222    92.27313   169.98939     0.10222
    24.40000    87.72455   190.02095     0.10209    92.27545   169.97905     0.10209
    24.50000    87.72222   190.03131     0.10197    92.27778   169.96869     0.10197
    24.60000    87.71988   190.04169     0.10185    92.28012   169.95831     0.10185
    24.70000    87.71754   190.05210     0.10172    92.28246   169.94790     0.10172
    24.80000    87.71520   190.06253     0.10160    92.28480   169.93747     0.10160
    24.90000    87.71285   190.07298     0.10148    92.28715   169.92702     0.10148
    25.00000    87.71049   190.08346     0.10136    92.28951   169.91654     0.10136
    25.10000    87.70813   190.09396     0.10123    92.29187   169.90604     0.10123
    25.20000    87.70576   190.10449     0.10111    92.29424   169.89551     0.10111
    25.30000    87.70339   190.11504     0.10099    92.29661   169.88496     0.10099
    25.40000    87.70101   190.12562     0.10087    92.29899   169.87438     0.10087
    25.50000    87.69863   190.13622     0.10074    92.30137   169.86378     0.10074
    25.60000    87.69624   190.14684     0.10062    92.30376   169.85316     0.10062
    25.70000    87.69384   190.15750     0.10050    92.30616   169.84250     0.10050
    25.80000    87.69144   190.16817     0.10037    92.30856   169.83183     0.10037
    25.90000    87.68904   190.17887     0.10025    92.31096   169.82113     0.10025
    26.00000    87.68662   190.18960     0.10013    92.31338   169.81040     0.10013
    26.10000    87.68421   190.20035     0.10001    92.31579   169.79965     0.10001
    26.20000    87.68178   190.21112     0.09988    92.31822   169.78888     0.09988
    26.30000    87.67936   190.22192     0.09976    92.32064   169.77808     0.09976
    26.40000    87.67692   190.23275     0.09964    92.32308   169.76725     0.09964
    26.50000    87.67448   190.24360     0.09952    92.32552   169.75640     0.09952
    26.60000    87.67204   190.25448     0.09939    92.32796   169.74552     0.09939
    26.70000    87.66959   190.26539     0.09927    92.33041   169.73461     0.09927
    26.80000    87.66713   190.27632     0.09915    92.33287   169.72368     0.09915
    26.90000    87.66467   190.28727     0.09903    92.33533   169.71273     0.09903
    27.00000    87.66220   190.29825     0.09890    92.33780   169.70175     0.09890
    27.10000    87.65973   190.30926     0.09878    92.34027   169.69074     0.09878
    27.20000    87.65725   190.32029     0.09866    92.34275   169.67971     0.09866
    27.30000    87.65476   190.33135     0.09854    92.34524   169.66865     0.09854
    27.40000    87.65227   190.34244     0.09841    92.34773   169.65756     0.09841
    27.50000    87.64977   190.35355     0.09829    92.35023   169.64645     0.09829
    27.60000    87.64727   190.36469     0.09817    92.35273   169.63531     0.09817
    27.70000    87.64476   190.37586     0.09805    92.35524   169.62414     0.09805
    27.80000    87.64225   190.38705     0.09792    92.35775   169.61295     0.09792
    27.90000    87.63973   190.39827     0.09780    92.36027   169.60173     0.09780
    28.00000    87.63720   190.40952     0.09768    92.36280   169.59048     0.09768
    28.10000    87.63467   190.42079     0.09756    92.36533   169.57921     0.09756
    28.20000    87.63213   190.43209     0.09744    92.36787   169.56791     0.09744
    28.30000    87.62959   190.44342     0.09731    92.37041   169.55658     0.09731
    28.40000    87.62704   190.45477     0.09719    92.37296   169.54523     0.09719
    28.50000    87.62448   190.46616     0.09707    92.37552   169.53384     0.09707
    28.60000    87.62192   190.47757     0.09695    92.37808   169.52243     0.09695
    28.70000    87.61935   190.48901     0.09682    92.38065   169.51099     0.09682
    28.80000    87.61677   190.50047     0.09670    92.38323   169.49953     0.09670
    28.90000    87.61419   190.51197     0.09658    92.38581   169.48803     0.09658
    29.00000    87.61161   190.52349     0.09646    92.38839   169.47651     0.09646
    29.10000    87.60901   190.53504     0.09634    92.39099   169.46496     0.09634
    29.20000    87.60641   190.54661     0.09621    92.39359   169.45339     0.09621
    29.30000    87.60381   190.55822     0.09609    92.39619   169.44178     0.09609
    29.40000    87.60119   190.56985     0.09597    92.39881   169.43015     0.09597
    29.50000    87.59858   190.58152     0.09585    92.40142   169.41848     0.09585
    29.60000    87.59595   190.59321     0.09573    92.40405   169.40679     0.09573
    29.70000    87.59332   190.60493     0.09560    92.40668   169.39507     0.09560
    29.80000    87.59068   190.61668     0.09548    92.40932   169.38332     0.09548
    29.90000    87.58804   190.62846     0.09536    92.41196   169.37154     0.09536
    30.00000    87.58539   190.64026     0.09524    92.41461   169.35974     0.09524
    30.10000    87.58273   190.65210     0.09511    92.41727   169.34790     0.09511
    30.20000    87.58007   190.66396     0.09499    92.41993   169.33604     0.09499
    30.30000    87.57740   190.67586     0.09487    92.42260   169.32414     0.09487
    30.40000    87.57473   190.68778     0.09475    92.42527   169.31222     0.09475
    30.50000    87.57204   190.69973     0.09463    92.42796   169.30027     0.09463
    30.60000    87.56935   190.71172     0.09450    92.43065   169.28828     0.09450
    30.70000    87.56666   190.72373     0.09438    92.43334   169.27627     0.09438
    30.80000    87.56396   190.73577     0.09426    92.43604   169.26423     0.09426
    30.90000    87.56125   190.74785     0.09414    92.43875   169.25215     0.09414
    31.00000    87.55853   190.75995     0.09402    92.44147   169.24005     0.09402
    31.10000    87.55581   190.77208     0.09390    92.44419   169.22792     0.09390
    31.20000    87.55308   190.78424     0.09377    92.44692   169.21576     0.09377
    31.30000    87.55035   190.79644     0.09365    92.44965   169.20356     0.09365
    31.40000    87.54760   190.80866     0.09353    92.45240   169.19134     0.09353
    31.50000    87.54486   190.82092     0.09341    92.45514   169.17908     0.09341
    31.60000    87.54210   190.83320     0.09329    92.45790   169.16680     0.09329
    31.70000    87.53934   190.84552     0.09316    92.46066   169.15448     0.09316
    31.80000    87.53657   190.85787     0.09304    92.46343   169.14213     0.09304
    31.90000    87.53379   190.87025     0.09292    92.46621   169.12975     0.09292
    32.00000    87.53101   190.88266     0.09280    92.46899   169.11734     0.09280
    32.10000    87.52822   190.89510     0.09268    92.47178   169.10490     0.09268
    32.20000    87.52542   190.90757     0.09256    92.47458   169.09243     0.09256
    32.30000    87.52262   190.92008     0.09243    92.47738   169.07992     0.09243
    32.40000    87.51981   190.93261     0.09231    92.48019   169.06739     0.09231
    32.50000    87.51699   190.94518     0.09219    92.48301   169.05482     0.09219
    32.60000    87.51417   190.95778     0.09207    92.48583   169.04222     0.09207
    32.70000    87.51133   190.97041     0.09195    92.48867   169.02959     0.09195
    32.80000    87.50850   190.98308     0.09183    92.49150   169.01692     0.09183
    32.90000    87.50565   190.99577     0.09170    92.49435   169.00423     0.09170
    33.00000    87.50280   191.00850     0.09158    92.49720   168.99150     0.09158
    33.10000    87.49994   191.02126     0.09146    92.50006   168.97874     0.09146
    33.20000    87.49707   191.03406     0.09134    92.50293   168.96594     0.09134
    33.30000    87.49419   191.04689     0.09122    92.50581   168.95311     0.09122
    33.40000    87.49131   191.05975     0.09110    92.50869   168.94025     0.09110
    33.50000    87.48842   191.07264     0.09097    92.51158   168.92736     0.09097
    33.60000    87.48553   191.08557     0.09085    92.51447   168.91443     0.09085
    33.70000    87.48262   191.09853     0.09073    92.51738   168.90147     0.09073
    33.80000    87.47971   191.11152     0.09061    92.52029   168.88848     0.09061
    33.90000    87.47679   191.12455     0.09049    92.52321   168.87545     0.09049
    34.00000    87.47387   191.13761     0.09037    92.52613   168.86239     0.09037
    34.10000    87.47093   191.15070     0.09025    92.52907   168.84930     0.09025
    34.20000    87.46799   191.16383     0.09012    92.53201   168.83617     0.09012
    34.30000    87.46504   191.17699     0.09000    92.53496   168.82301     0.09000
    34.40000    87.46209   191.19019     0.08988    92.53791   168.80981     0.08988
    34.50000    87.45912   191.20342     0.08976    92.54088   168.79658     0.08976
    34.60000    87.45615   191.21669     0.08964    92.54385   168.78331     0.08964
    34.70000    87.45317   191.22999     0.08952    92.54683   168.77001     0.08952
    34.80000    87.45019   191.24333     0.08940    92.54981   168.75667     0.08940
    34.90000    87.44719   191.25670     0.08927    92.55281   168.74330     0.08927
    35.00000    87.44419   191.27010     0.08915    92.55581   168.72990     0.08915
    35.10000    87.44118   191.28354     0.08903    92.55882   168.71646     0.08903
    35.20000    87.43816   191.29702     0.08891    92.56184   168.70298     0.08891
    35.30000    87.43514   191.31053     0.08879    92.56486   168.68947     0.08879
    35.40000    87.43211   191.32408     0.08867    92.56789   168.67592     0.08867
    35.50000    87.42907   191.33766     0.08855    92.57093   168.66234     0.08855
    35.60000    87.42602   191.35128     0.08843    92.57398   168.64872     0.08843
    35.70000    87.42296   191.36494     0.08830    92.57704   168.63506     0.08830
    35.80000    87.41990   191.37863     0.08818    92.58010   168.62137     0.08818
    35.90000    87.41682   191.39236     0.08806    92.58318   168.60764     0.08806
    36.00000    87.41374   191.40612     0.08794    92.58626   168.59388     0.08794
    36.10000    87.41066   191.41992     0.08782    92.58934   168.58008     0.08782
    36.20000    87.40756   191.43376     0.08770    92.59244   168.56624     0.08770
    36.30000    87.40445   191.44764     0.08758    92.59555   168.55236     0.08758
    36.40000    87.40134   191.46155     0.08746    92.59866   168.53845     0.08746
    36.50000    87.39822   191.47550     0.08733    92.60178   168.52450     0.08733
    36.60000    87.39509   191.48948     0.08721    92.60491   168.51052     0.08721
    36.70000    87.39195   191.50351     0.08709    92.60805   168.49649     0.08709
    36.80000    87.38881   191.51757     0.08697    92.61119   168.48243     0.08697
    36.90000    87.38565   191.53167     0.08685    92.61435   168.46833     0.08685
    37.00000    87.38249   191.54581     0.08673    92.61751   168.45419     0.08673
    37.10000    87.37932   191.55998     0.08661    92.62068   168.44002     0.08661
    37.20000    87.37614   191.57420     0.08649    92.62386   168.42580     0.08649
    37.30000    87.37295   191.58845     0.08637    92.62705   168.41155     0.08637
    37.40000    87.36976   191.60274     0.08625    92.63024   168.39726     0.08625
    37.50000    87.36655   191.61707     0.08612    92.63345   168.38293     0.08612
    37.60000    87.36334   191.63144     0.08600    92.63666   168.36856     0.08600
    37.70000    87.36012   191.64585     0.08588    92.63988   168.35415     0.08588
    37.80000    87.35689   191.66030     0.08576    92.64311   168.33970     0.08576
    37.90000    87.35365   191.67478     0.08564    92.64635   168.32522     0.08564
    38.00000    87.35040   191.68931     0.08552    92.64960   168.31069     0.08552
    38.10000    87.34715   191.70388     0.08540    92.65285   168.29612     0.08540
    38.20000    87.34388   191.71848     0.08528    92.65612   168.28152     0.08528
    38.30000    87.34061   191.73313     0.08516    92.65939   168.26687     0.08516
    38.40000    87.33733   191.74782     0.08504    92.66267   168.25218     0.08504
    38.50000    87.33404   191.76254     0.08492    92.66596   168.23746     0.08492
    38.60000    87.33074   191.77731     0.08479    92.66926   168.22269     0.08479
    38.70000    87.32743   191.79212     0.08467    92.67257   168.20788     0.08467
    38.80000    87.32411   191.80697     0.08455    92.67589   168.19303     0.08455
    38.90000    87.32078   191.82186     0.08443    92.67922   168.17814     0.08443
    39.00000    87.31745   191.83679     0.08431    92.68255   168.16321     0.08431
    39.10000    87.31410   191.85176     0.08419    92.68590   168.14824     0.08419
    39.20000    87.31075   191.86678     0.08407    92.68925   168.13322     0.08407
    39.30000    87.30739   191.88183     0.08395    92.69261   168.11817     0.08395
    39.40000    87.30401   191.89693     0.08383    92.69599   168.10307     0.08383
    39.50000    87.30063   191.91207     0.08371    92.69937   168.08793     0.08371
    39.60000    87.29724   191.92726     0.08359    92.70276   168.07274     0.08359
    39.70000    87.29384   191.94248     0.08347    92.70616   168.05752     0.08347
    39.80000    87.29043   191.95775     0.08335    92.70957   168.04225     0.08335
    39.90000    87.28701   191.97306     0.08323    92.71299   168.02694     0.08323
    40.00000    87.28358   191.98841     0.08311    92.71642   168.01159     0.08311
