 # applied field (T), theta (degree), phi (degree), abs for RE 3-4
     0.00000     2.27803   135.00000     4.70039     2.27803    45.00000     4.70039
     0.10000     2.05418   128.82747     4.70036     2.52336    39.98070     4.70042
     0.20000     1.88498   122.41764     4.70033     2.74679    36.40954     4.70044
     0.30000     1.72364   113.49951     4.70028     3.01817    32.93374     4.70046
     0.40000     1.61173   103.04655     4.70024     3.29875    30.04071     4.70047
     0.50000     1.56007    91.47437     4.70018     3.58636    27.60669     4.70048
     0.60000     1.56863    81.27155     4.70013     3.83777    25.81046     4.70048
     0.70000     1.63931    69.94075     4.70007     4.13468    23.99615     4.70048
     0.80000     1.76778    59.89028     4.70000     4.43520    22.42619     4.70048
     0.90000     1.94279    51.41305     4.69993     4.73868    21.05622     4.70047
     1.00000     2.12169    45.35193     4.69986     5.00125    20.01276     4.70045
     1.10000     2.35510    39.52328     4.69978     5.30899    18.92794     4.70043
     1.20000     2.60873    34.77912     4.69969     5.61855    17.96200     4.70041
     1.30000     2.87741    30.89194     4.69960     5.92968    17.09684     4.70038
     1.40000     3.15746    27.67609     4.69950     6.24220    16.31777     4.70034
     1.50000     3.40501    25.33947     4.69941     6.51156    15.70824     4.70031
     1.60000     3.69984    23.01358     4.69930     6.82629    15.05884     4.70027
     1.70000     4.00037    21.03035     4.69919     7.14205    14.46639     4.70022
     1.80000     4.30557    19.32292     4.69907     7.45878    13.92381     4.70017
     1.90000     4.61466    17.83980     4.69894     7.77641    13.42512     4.70011
     2.00000     4.92707    16.54102     4.69881     8.09490    12.96523     4.70005
     2.10000     5.24234    15.39518     4.69868     8.41420    12.53984     4.69998
     2.20000     5.56014    14.37741     4.69854     8.73429    12.14522     4.69991
     2.30000     5.88020    13.46782     4.69839     9.05514    11.77817     4.69983
     2.40000     6.20233    12.65030     4.69824     9.37675    11.43591     4.69975
     2.50000     6.52635    11.91174     4.69808     9.69909    11.11602     4.69966
     2.60000     6.85215    11.24134     4.69792    10.02216    10.81639     4.69957
     2.70000     7.17962    10.63016     4.69775    10.34597    10.53515     4.69948
     2.80000     7.50868    10.07071     4.69758    10.67050    10.27066     4.69938
     2.90000     7.83928     9.55673     4.69740    10.99576    10.02148     4.69928
     3.00000     8.21841     9.01890     4.69719    11.36787     9.75417     4.69915
     3.10000     8.55216     8.58535     4.69700    11.69471     9.53359     4.69904
     3.20000     8.88733     8.18300     4.69681    12.02229     9.32471     4.69892
     3.30000     9.27158     7.75778     4.69658    12.39709     9.09948     4.69879
     3.40000     9.60975     7.41180     4.69637    12.72630     8.91271     4.69866
     3.50000     9.94932     7.08812     4.69616    13.05628     8.73508     4.69853
     3.60000    10.33856     6.74325     4.69591    13.43386     8.54271     4.69838
     3.70000    10.68110     6.46051     4.69569    13.76555     8.38251     4.69824
     3.80000    11.07375     6.15784     4.69542    14.14510     8.20857     4.69807
     3.90000    11.46824     5.87450     4.69516    14.52573     8.04338     4.69791
     4.00000    11.81540     5.64066     4.69492    14.86013     7.90530     4.69775
     4.10000    12.21338     5.38878     4.69464    15.24283     7.75484     4.69758
     4.20000    12.61324     5.15151     4.69435    15.62667     7.61143     4.69740
     4.30000    13.01501     4.92756     4.69406    16.01166     7.47458     4.69721
     4.40000    13.41872     4.71580     4.69376    16.39782     7.34385     4.69702
     4.50000    13.82439     4.51520     4.69345    16.78517     7.21884     4.69682
     4.60000    14.28267     4.30199     4.69310    17.22194     7.08473     4.69659
     4.70000    14.69259     4.12224     4.69278    17.61189     6.97067     4.69639
     4.80000    15.10457     3.95112     4.69245    18.00310     6.86125     4.69618
     4.90000    15.57004     3.76834     4.69208    18.44427     6.74353     4.69594
     5.00000    16.03818     3.59483     4.69170    18.88707     6.63096     4.69569
     5.10000    16.45701     3.44762     4.69135    19.28247     6.53482     4.69547
     5.20000    16.93030     3.28967     4.69096    19.72843     6.43110     4.69522
     5.30000    17.40637     3.13904     4.69056    20.17608     6.33163     4.69496
     5.40000    17.93822     2.97976     4.69011    20.67511     6.22590     4.69467
     5.50000    18.42030     2.84288     4.68969    21.12643     6.13458     4.69440
     5.60000    18.95891     2.69770     4.68923    21.62958     6.03732     4.69410
     5.70000    19.50115     2.55912     4.68875    22.13493     5.94410     4.69379
     5.80000    20.04708     2.42665     4.68827    22.64252     5.85468     4.69348
     5.90000    20.59674     2.29984     4.68779    23.15236     5.76881     4.69317
     6.00000    21.20531     2.16650     4.68725    23.71546     5.67829     4.69282
     6.10000    21.81848     2.03902     4.68670    24.28132     5.59154     4.69247
     6.20000    22.43632     1.91698     4.68615    24.84998     5.50832     4.69211
     6.30000    23.11530     1.78965     4.68554    25.47322     5.42137     4.69172
     6.40000    23.79991     1.66785     4.68493    26.09981     5.33810     4.69133
     6.50000    24.49019     1.55115     4.68431    26.72978     5.25824     4.69094
     6.60000    25.30202     1.42109     4.68360    27.46841     5.16924     4.69048
     6.70000    26.12160     1.29694     4.68288    28.21163     5.08427     4.69001
     6.80000    26.94895     1.17822     4.68216    28.95944     5.00305     4.68955
     6.90000    27.90338     1.04875     4.68134    29.81916     4.91456     4.68903
     7.00000    28.92819     0.91775     4.68049    30.73885     4.82516     4.68848
     7.10000    91.86768   357.61759     4.67920    88.13232     2.38241     4.67920
     7.20000    91.86744   357.61789     4.67918    88.13256     2.38211     4.67918
     7.30000    91.86719   357.61818     4.67916    88.13281     2.38182     4.67916
     7.40000    91.86695   357.61848     4.67914    88.13305     2.38152     4.67914
     7.50000    91.86670   357.61878     4.67912    88.13330     2.38122     4.67912
     7.60000    91.86645   357.61907     4.67910    88.13355     2.38093     4.67910
     7.70000    91.86621   357.61937     4.67907    88.13379     2.38063     4.67907
     7.80000    91.86596   357.61966     4.67905    88.13404     2.38034     4.67905
     7.90000    91.86572   357.61996     4.67903    88.13428     2.38004     4.67903
     8.00000    91.86547   357.62025     4.67901    88.13453     2.37975     4.67901
     8.10000    91.86523   357.62055     4.67899    88.13477     2.37945     4.67899
     8.20000    91.86498   357.62085     4.67897    88.13502     2.37915     4.67897
     8.30000    91.86473   357.62114     4.67894    88.13527     2.37886     4.67894
     8.40000    91.86449   357.62144     4.67892    88.13551     2.37856     4.67892
     8.50000    91.86424   357.62173     4.67890    88.13576     2.37827     4.67890
     8.60000    91.86400   357.62203     4.67888    88.13600     2.37797     4.67888
     8.70000    91.86375   357.62232     4.67886    88.13625     2.37768     4.67886
     8.80000    91.86351   357.62262     4.67884    88.13649     2.37738     4.67884
     8.90000    91.86327   357.62291     4.67881    88.13673     2.37709     4.67881
     9.00000    91.86302   357.62320     4.67879    88.13698     2.37680     4.67879
     9.10000    91.86278   357.62350     4.67877    88.13722     2.37650     4.67877
     9.20000    91.86253   357.62379     4.67875    88.13747     2.37621     4.67875
     9.30000    91.86229   357.62409     4.67873    88.13771     2.37591     4.67873
     9.40000    91.86204   357.62438     4.67871    88.13796     2.37562     4.67871
     9.50000    91.86180   357.62468     4.67869    88.13820     2.37532     4.67869
     9.60000    91.86155   357.62497     4.67866    88.13845     2.37503     4.67866
     9.70000    91.86131   357.62526     4.67864    88.13869     2.37474     4.67864
     9.80000    91.86107   357.62556     4.67862    88.13893     2.37444     4.67862
     9.90000    91.86082   357.62585     4.67860    88.13918     2.37415     4.67860
    10.00000    91.86058   357.62614     4.67858    88.13942     2.37386     4.67858
    10.10000    91.86034   357.62644     4.67856    88.13966     2.37356     4.67856
    10.20000    91.86009   357.62673     4.67853    88.13991     2.37327     4.67853
    10.30000    91.85985   357.62702     4.67851    88.14015     2.37298     4.67851
    10.40000    91.85961   357.62732     4.67849    88.14039     2.37268     4.67849
    10.50000    91.85936   357.62761     4.67847    88.14064     2.37239     4.67847
    10.60000    91.85912   357.62790     4.67845    88.14088     2.37210     4.67845
    10.70000    91.85888   357.62820     4.67843    88.14112     2.37180     4.67843
    10.80000    91.85863   357.62849     4.67840    88.14137     2.37151     4.67840
    10.90000    91.85839   357.62878     4.67838    88.14161     2.37122     4.67838
    11.00000    91.85815   357.62907     4.67836    88.14185     2.37093     4.67836
    11.10000    91.85790   357.62937     4.67834    88.14210     2.37063     4.67834
    11.20000    91.85766   357.62966     4.67832    88.14234     2.37034     4.67832
    11.30000    91.85742   357.62995     4.67830    88.14258     2.37005     4.67830
    11.40000    91.85718   357.63024     4.67827    88.14282     2.36976     4.67827
    11.50000    91.85693   357.63054     4.67825    88.14307     2.36946     4.67825
    11.60000    91.85669   357.63083     4.67823    88.14331     2.36917     4.67823
    11.70000    91.85645   357.63112     4.67821    88.14355     2.36888     4.67821
    11.80000    91.85621   357.63141     4.67819    88.14379     2.36859     4.67819
    11.90000    91.85597   357.63170     4.67817    88.14403     2.36830     4.67817
    12.00000    91.85572   357.63199     4.67814    88.14428     2.36801     4.67814
    12.10000    91.85548   357.63229     4.67812    88.14452     2.36771     4.67812
    12.20000    91.85524   357.63258     4.67810    88.14476     2.36742     4.67810
    12.30000    91.85500   357.63287     4.67808    88.14500     2.36713     4.67808
    12.40000    91.85476   357.63316     4.67806    88.14524     2.36684     4.67806
    12.50000    91.85451   357.63345     4.67804    88.14549     2.36655     4.67804
    12.60000    91.85427   357.63374     4.67801    88.14573     2.36626     4.67801
    12.70000    91.85403   357.63403     4.67799    88.14597     2.36597     4.67799
    12.80000    91.85379   357.63432     4.67797    88.14621     2.36568     4.67797
    12.90000    91.85355   357.63461     4.67795    88.14645     2.36539     4.67795
    13.00000    91.85331   357.63490     4.67793    88.14669     2.36510     4.67793
    13.10000    91.85307   357.63519     4.67791    88.14693     2.36481     4.67791
    13.20000    91.85283   357.63548     4.67788    88.14717     2.36452     4.67788
    13.30000    91.85259   357.63578     4.67786    88.14741     2.36422     4.67786
    13.40000    91.85234   357.63607     4.67784    88.14766     2.36393     4.67784
    13.50000    91.85210   357.63636     4.67782    88.14790     2.36364     4.67782
    13.60000    91.85186   357.63665     4.67780    88.14814     2.36335     4.67780
    13.70000    91.85162   357.63694     4.67777    88.14838     2.36306     4.67777
    13.80000    91.85138   357.63722     4.67775    88.14862     2.36278     4.67775
    13.90000    91.85114   357.63751     4.67773    88.14886     2.36249     4.67773
    14.00000    91.85090   357.63780     4.67771    88.14910     2.36220     4.67771
    14.10000    91.85066   357.63809     4.67769    88.14934     2.36191     4.67769
    14.20000    91.85042   357.63838     4.67767    88.14958     2.36162     4.67767
    14.30000    91.85018   357.63867     4.67764    88.14982     2.36133     4.67764
    14.40000    91.84994   357.63896     4.67762    88.15006     2.36104     4.67762
    14.50000    91.84970   357.63925     4.67760    88.15030     2.36075     4.67760
    14.60000    91.84946   357.63954     4.67758    88.15054     2.36046     4.67758
    14.70000    91.84922   357.63983     4.67756    88.15078     2.36017     4.67756
    14.80000    91.84898   357.64012     4.67754    88.15102     2.35988     4.67754
    14.90000    91.84874   357.64041     4.67751    88.15126     2.35959     4.67751
    15.00000    91.84850   357.64069     4.67749    88.15150     2.35931     4.67749
    15.10000    91.84827   357.64098     4.67747    88.15173     2.35902     4.67747
    15.20000    91.84803   357.64127     4.67745    88.15197     2.35873     4.67745
    15.30000    91.84779   357.64156     4.67743    88.15221     2.35844     4.67743
    15.40000    91.84755   357.64185     4.67741    88.15245     2.35815     4.67741
    15.50000    91.84731   357.64214     4.67738    88.15269     2.35786     4.67738
    15.60000    91.84707   357.64242     4.67736    88.15293     2.35758     4.67736
    15.70000    91.84683   357.64271     4.67734    88.15317     2.35729     4.67734
    15.80000    91.84659   357.64300     4.67732    88.15341     2.35700     4.67732
    15.90000    91.84635   357.64329     4.67730    88.15365     2.35671     4.67730
    16.00000    91.84612   357.64357     4.67727    88.15388     2.35643     4.67727
    16.10000    91.84588   357.64386     4.67725    88.15412     2.35614     4.67725
    16.20000    91.84564   357.64415     4.67723    88.15436     2.35585     4.67723
    16.30000    91.84540   357.64444     4.67721    88.15460     2.35556     4.67721
    16.40000    91.84516   357.64472     4.67719    88.15484     2.35528     4.67719
    16.50000    91.84493   357.64501     4.67717    88.15507     2.35499     4.67717
    16.60000    91.84469   357.64530     4.67714    88.15531     2.35470     4.67714
    16.70000    91.84445   357.64558     4.67712    88.15555     2.35442     4.67712
    16.80000    91.84421   357.64587     4.67710    88.15579     2.35413     4.67710
    16.90000    91.84397   357.64616     4.67708    88.15603     2.35384     4.67708
    17.00000    91.84374   357.64644     4.67706    88.15626     2.35356     4.67706
    17.10000    91.84350   357.64673     4.67703    88.15650     2.35327     4.67703
    17.20000    91.84326   357.64702     4.67701    88.15674     2.35298     4.67701
    17.30000    91.84302   357.64730     4.67699    88.15698     2.35270     4.67699
    17.40000    91.84279   357.64759     4.67697    88.15721     2.35241     4.67697
    17.50000    91.84255   357.64788     4.67695    88.15745     2.35212     4.67695
    17.60000    91.84231   357.64816     4.67693    88.15769     2.35184     4.67693
    17.70000    91.84208   357.64845     4.67690    88.15792     2.35155     4.67690
    17.80000    91.84184   357.64873     4.67688    88.15816     2.35127     4.67688
    17.90000    91.84160   357.64902     4.67686    88.15840     2.35098     4.67686
    18.00000    91.84137   357.64930     4.67684    88.15863     2.35070     4.67684
    18.10000    91.84113   357.64959     4.67682    88.15887     2.35041     4.67682
    18.20000    91.84089   357.64988     4.67679    88.15911     2.35012     4.67679
    18.30000    91.84066   357.65016     4.67677    88.15934     2.34984     4.67677
    18.40000    91.84042   357.65045     4.67675    88.15958     2.34955     4.67675
    18.50000    91.84018   357.65073     4.67673    88.15982     2.34927     4.67673
    18.60000    91.83995   357.65102     4.67671    88.16005     2.34898     4.67671
    18.70000    91.83971   357.65130     4.67668    88.16029     2.34870     4.67668
    18.80000    91.83947   357.65159     4.67666    88.16053     2.34841     4.67666
    18.90000    91.83924   357.65187     4.67664    88.16076     2.34813     4.67664
    19.00000    91.83900   357.65216     4.67662    88.16100     2.34784     4.67662
    19.10000    91.83877   357.65244     4.67660    88.16123     2.34756     4.67660
    19.20000    91.83853   357.65272     4.67658    88.16147     2.34728     4.67658
    19.30000    91.83830   357.65301     4.67655    88.16170     2.34699     4.67655
    19.40000    91.83806   357.65329     4.67653    88.16194     2.34671     4.67653
    19.50000    91.83782   357.65358     4.67651    88.16218     2.34642     4.67651
    19.60000    91.83759   357.65386     4.67649    88.16241     2.34614     4.67649
    19.70000    91.83735   357.65415     4.67647    88.16265     2.34585     4.67647
    19.80000    91.83712   357.65443     4.67644    88.16288     2.34557     4.67644
    19.90000    91.83688   357.65471     4.67642    88.16312     2.34529     4.67642
    20.00000    91.83665   357.65500     4.67640    88.16335     2.34500     4.67640
    20.10000    91.83641   357.65528     4.67638    88.16359     2.34472     4.67638
    20.20000    91.83618   357.65556     4.67636    88.16382     2.34444     4.67636
    20.30000    91.83594   357.65585     4.67633    88.16406     2.34415     4.67633
    20.40000    91.83571   357.65613     4.67631    88.16429     2.34387     4.67631
    20.50000    91.83547   357.65641     4.67629    88.16453     2.34359     4.67629
    20.60000    91.83524   357.65670     4.67627    88.16476     2.34330     4.67627
    20.70000    91.83501   357.65698     4.67625    88.16499     2.34302     4.67625
    20.80000    91.83477   357.65726     4.67622    88.16523     2.34274     4.67622
    20.90000    91.83454   357.65755     4.67620    88.16546     2.34245     4.67620
    21.00000    91.83430   357.65783     4.67618    88.16570     2.34217     4.67618
    21.10000    91.83407   357.65811     4.67616    88.16593     2.34189     4.67616
    21.20000    91.83383   357.65839     4.67614    88.16617     2.34161     4.67614
    21.30000    91.83360   357.65868     4.67612    88.16640     2.34132     4.67612
    21.40000    91.83337   357.65896     4.67609    88.16663     2.34104     4.67609
    21.50000    91.83313   357.65924     4.67607    88.16687     2.34076     4.67607
    21.60000    91.83290   357.65952     4.67605    88.16710     2.34048     4.67605
    21.70000    91.83267   357.65980     4.67603    88.16733     2.34020     4.67603
    21.80000    91.83243   357.66009     4.67601    88.16757     2.33991     4.67601
    21.90000    91.83220   357.66037     4.67598    88.16780     2.33963     4.67598
    22.00000    91.83196   357.66065     4.67596    88.16804     2.33935     4.67596
    22.10000    91.83173   357.66093     4.67594    88.16827     2.33907     4.67594
    22.20000    91.83150   357.66121     4.67592    88.16850     2.33879     4.67592
    22.30000    91.83127   357.66149     4.67590    88.16873     2.33851     4.67590
    22.40000    91.83103   357.66178     4.67587    88.16897     2.33822     4.67587
    22.50000    91.83080   357.66206     4.67585    88.16920     2.33794     4.67585
    22.60000    91.83057   357.66234     4.67583    88.16943     2.33766     4.67583
    22.70000    91.83033   357.66262     4.67581    88.16967     2.33738     4.67581
    22.80000    91.83010   357.66290     4.67579    88.16990     2.33710     4.67579
    22.90000    91.82987   357.66318     4.67576    88.17013     2.33682     4.67576
    23.00000    91.82964   357.66346     4.67574    88.17036     2.33654     4.67574
    23.10000    91.82940   357.66374     4.67572    88.17060     2.33626     4.67572
    23.20000    91.82917   357.66402     4.67570    88.17083     2.33598     4.67570
    23.30000    91.82894   357.66430     4.67568    88.17106     2.33570     4.67568
    23.40000    91.82871   357.66458     4.67565    88.17129     2.33542     4.67565
    23.50000    91.82847   357.66486     4.67563    88.17153     2.33514     4.67563
    23.60000    91.82824   357.66515     4.67561    88.17176     2.33485     4.67561
    23.70000    91.82801   357.66543     4.67559    88.17199     2.33457     4.67559
    23.80000    91.82778   357.66571     4.67557    88.17222     2.33429     4.67557
    23.90000    91.82755   357.66599     4.67554    88.17245     2.33401     4.67554
    24.00000    91.82732   357.66627     4.67552    88.17268     2.33373     4.67552
    24.10000    91.82708   357.66654     4.67550    88.17292     2.33346     4.67550
    24.20000    91.82685   357.66682     4.67548    88.17315     2.33318     4.67548
    24.30000    91.82662   357.66710     4.67546    88.17338     2.33290     4.67546
    24.40000    91.82639   357.66738     4.67543    88.17361     2.33262     4.67543
    24.50000    91.82616   357.66766     4.67541    88.17384     2.33234     4.67541
    24.60000    91.82593   357.66794     4.67539    88.17407     2.33206     4.67539
    24.70000    91.82570   357.66822     4.67537    88.17430     2.33178     4.67537
    24.80000    91.82547   357.66850     4.67534    88.17453     2.33150     4.67534
    24.90000    91.82523   357.66878     4.67532    88.17477     2.33122     4.67532
    25.00000    91.82500   357.66906     4.67530    88.17500     2.33094     4.67530
    25.10000    91.82477   357.66934     4.67528    88.17523     2.33066     4.67528
    25.20000    91.82454   357.66962     4.67526    88.17546     2.33038     4.67526
    25.30000    91.82431   357.66989     4.67523    88.17569     2.33011     4.67523
    25.40000    91.82408   357.67017     4.67521    88.17592     2.32983     4.67521
    25.50000    91.82385   357.67045     4.67519    88.17615     2.32955     4.67519
    25.60000    91.82362   357.67073     4.67517    88.17638     2.32927     4.67517
    25.70000    91.82339   357.67101     4.67515    88.17661     2.32899     4.67515
    25.80000    91.82316   357.67129     4.67512    88.17684     2.32871     4.67512
    25.90000    91.82293   357.67156     4.67510    88.17707     2.32844     4.67510
    26.00000    91.82270   357.67184     4.67508    88.17730     2.32816     4.67508
    26.10000    91.82247   357.67212     4.67506    88.17753     2.32788     4.67506
    26.20000    91.82224   357.67240     4.67504    88.17776     2.32760     4.67504
    26.30000    91.82201   357.67268     4.67501    88.17799     2.32732     4.67501
    26.40000    91.82178   357.67295     4.67499    88.17822     2.32705     4.67499
    26.50000    91.82155   357.67323     4.67497    88.17845     2.32677     4.67497
    26.60000    91.82132   357.67351     4.67495    88.17868     2.32649     4.67495
    26.70000    91.82109   357.67379     4.67493    88.17891     2.32621     4.67493
    26.80000    91.82086   357.67406     4.67490    88.17914     2.32594     4.67490
    26.90000    91.82063   357.67434     4.67488    88.17937     2.32566     4.67488
    27.00000    91.82040   357.67462     4.67486    88.17960     2.32538     4.67486
    27.10000    91.82018   357.67489     4.67484    88.17982     2.32511     4.67484
    27.20000    91.81995   357.67517     4.67481    88.18005     2.32483     4.67481
    27.30000    91.81972   357.67545     4.67479    88.18028     2.32455     4.67479
    27.40000    91.81949   357.67572     4.67477    88.18051     2.32428     4.67477
    27.50000    91.81926   357.67600     4.67475    88.18074     2.32400     4.67475
    27.60000    91.81903   357.67628     4.67473    88.18097     2.32372     4.67473
    27.70000    91.81880   357.67655     4.67470    88.18120     2.32345     4.67470
    27.80000    91.81857   357.67683     4.67468    88.18143     2.32317     4.67468
    27.90000    91.81835   357.67711     4.67466    88.18165     2.32289     4.67466
    28.00000    91.81812   357.67738     4.67464    88.18188     2.32262     4.67464
    28.10000    91.81789   357.67766     4.67462    88.18211     2.32234     4.67462
    28.20000    91.81766   357.67793     4.67459    88.18234     2.32207     4.67459
    28.30000    91.81743   357.67821     4.67457    88.18257     2.32179     4.67457
    28.40000    91.81720   357.67849     4.67455    88.18280     2.32151     4.67455
    28.50000    91.81698   357.67876     4.67453    88.18302     2.32124     4.67453
    28.60000    91.81675   357.67904     4.67450    88.18325     2.32096     4.67450
    28.70000    91.81652   357.67931     4.67448    88.18348     2.32069     4.67448
    28.80000    91.81629   357.67959     4.67446    88.18371     2.32041     4.67446
    28.90000    91.81607   357.67986     4.67444    88.18393     2.32014     4.67444
    29.00000    91.81584   357.68014     4.67442    88.18416     2.31986     4.67442
    29.10000    91.81561   357.68041     4.67439    88.18439     2.31959     4.67439
    29.20000    91.81538   357.68069     4.67437    88.18462     2.31931     4.67437
    29.30000    91.81516   357.68096     4.67435    88.18484     2.31904     4.67435
    29.40000    91.81493   357.68124     4.67433    88.18507     2.31876     4.67433
    29.50000    91.81470   357.68151     4.67431    88.18530     2.31849     4.67431
    29.60000    91.81447   357.68179     4.67428    88.18553     2.31821     4.67428
    29.70000    91.81425   357.68206     4.67426    88.18575     2.31794     4.67426
    29.80000    91.81402   357.68234     4.67424    88.18598     2.31766     4.67424
    29.90000    91.81379   357.68261     4.67422    88.18621     2.31739     4.67422
    30.00000    91.81357   357.68288     4.67419    88.18643     2.31712     4.67419
    30.10000    91.81334   357.68316     4.67417    88.18666     2.31684     4.67417
    30.20000    91.81311   357.68343     4.67415    88.18689     2.31657     4.67415
    30.30000    91.81289   357.68371     4.67413    88.18711     2.31629     4.67413
    30.40000    91.81266   357.68398     4.67411    88.18734     2.31602     4.67411
    30.50000    91.81243   357.68425     4.67408    88.18757     2.31575     4.67408
    30.60000    91.81221   357.68453     4.67406    88.18779     2.31547     4.67406
    30.70000    91.81198   357.68480     4.67404    88.18802     2.31520     4.67404
    30.80000    91.81176   357.68507     4.67402    88.18824     2.31493     4.67402
    30.90000    91.81153   357.68535     4.67399    88.18847     2.31465     4.67399
    31.00000    91.81130   357.68562     4.67397    88.18870     2.31438     4.67397
    31.10000    91.81108   357.68589     4.67395    88.18892     2.31411     4.67395
    31.20000    91.81085   357.68617     4.67393    88.18915     2.31383     4.67393
    31.30000    91.81063   357.68644     4.67391    88.18937     2.31356     4.67391
    31.40000    91.81040   357.68671     4.67388    88.18960     2.31329     4.67388
    31.50000    91.81018   357.68699     4.67386    88.18982     2.31301     4.67386
    31.60000    91.80995   357.68726     4.67384    88.19005     2.31274     4.67384
    31.70000    91.80972   357.68753     4.67382    88.19028     2.31247     4.67382
    31.80000    91.80950   357.68780     4.67379    88.19050     2.31220     4.67379
    31.90000    91.80927   357.68808     4.67377    88.19073     2.31192     4.67377
    32.00000    91.80905   357.68835     4.67375    88.19095     2.31165     4.67375
    32.10000    91.80882   357.68862     4.67373    88.19118     2.31138     4.67373
    32.20000    91.80860   357.68889     4.67371    88.19140     2.31111     4.67371
    32.30000    91.80837   357.68917     4.67368    88.19163     2.31083     4.67368
    32.40000    91.80815   357.68944     4.67366    88.19185     2.31056     4.67366
    32.50000    91.80793   357.68971     4.67364    88.19207     2.31029     4.67364
    32.60000    91.80770   357.68998     4.67362    88.19230     2.31002     4.67362
    32.70000    91.80748   357.69025     4.67359    88.19252     2.30975     4.67359
    32.80000    91.80725   357.69053     4.67357    88.19275     2.30947     4.67357
    32.90000    91.80703   357.69080     4.67355    88.19297     2.30920     4.67355
    33.00000    91.80680   357.69107     4.67353    88.19320     2.30893     4.67353
    33.10000    91.80658   357.69134     4.67350    88.19342     2.30866     4.67350
    33.20000    91.80635   357.69161     4.67348    88.19365     2.30839     4.67348
    33.30000    91.80613   357.69188     4.67346    88.19387     2.30812     4.67346
    33.40000    91.80591   357.69215     4.67344    88.19409     2.30785     4.67344
    33.50000    91.80568   357.69242     4.67342    88.19432     2.30758     4.67342
    33.60000    91.80546   357.69269     4.67339    88.19454     2.30731     4.67339
    33.70000    91.80523   357.69297     4.67337    88.19477     2.30703     4.67337
    33.80000    91.80501   357.69324     4.67335    88.19499     2.30676     4.67335
    33.90000    91.80479   357.69351     4.67333    88.19521     2.30649     4.67333
    34.00000    91.80456   357.69378     4.67330    88.19544     2.30622     4.67330
    34.10000    91.80434   357.69405     4.67328    88.19566     2.30595     4.67328
    34.20000    91.80412   357.69432     4.67326    88.19588     2.30568     4.67326
    34.30000    91.80389   357.69459     4.67324    88.19611     2.30541     4.67324
    34.40000    91.80367   357.69486     4.67321    88.19633     2.30514     4.67321
    34.50000    91.80345   357.69513     4.67319    88.19655     2.30487     4.67319
    34.60000    91.80322   357.69540     4.67317    88.19678     2.30460     4.67317
    34.70000    91.80300   357.69567     4.67315    88.19700     2.30433     4.67315
    34.80000    91.80278   357.69594     4.67313    88.19722     2.30406     4.67313
    34.90000    91.80256   357.69621     4.67310    88.19744     2.30379     4.67310
    35.00000    91.80233   357.69648     4.67308    88.19767     2.30352     4.67308
    35.10000    91.80211   357.69675     4.67306    88.19789     2.30325     4.67306
    35.20000    91.80189   357.69702     4.67304    88.19811     2.30298     4.67304
    35.30000    91.80167   357.69729     4.67301    88.19833     2.30271     4.67301
    35.40000    91.80144   357.69756     4.67299    88.19856     2.30244     4.67299
    35.50000    91.80122   357.69783     4.67297    88.19878     2.30217     4.67297
    35.60000    91.80100   357.69809     4.67295    88.19900     2.30191     4.67295
    35.70000    91.80078   357.69836     4.67292    88.19922     2.30164     4.67292
    35.80000    91.80055   357.69863     4.67290    88.19945     2.30137     4.67290
    35.90000    91.80033   357.69890     4.67288    88.19967     2.30110     4.67288
    36.00000    91.80011   357.69917     4.67286    88.19989     2.30083     4.67286
    36.10000    91.79989   357.69944     4.67283    88.20011     2.30056     4.67283
    36.20000    91.79967   357.69971     4.67281    88.20033     2.30029     4.67281
    36.30000    91.79945   357.69998     4.67279    88.20055     2.30002     4.67279
    36.40000    91.79922   357.70024     4.67277    88.20078     2.29976     4.67277
    36.50000    91.79900   357.70051     4.67274    88.20100     2.29949     4.67274
    36.60000    91.79878   357.70078     4.67272    88.20122     2.29922     4.67272
    36.70000    91.79856   357.70105     4.67270    88.20144     2.29895     4.67270
    36.80000    91.79834   357.70132     4.67268    88.20166     2.29868     4.67268
    36.90000    91.79812   357.70158     4.67266    88.20188     2.29842     4.67266
    37.00000    91.79790   357.70185     4.67263    88.20210     2.29815     4.67263
    37.10000    91.79767   357.70212     4.67261    88.20233     2.29788     4.67261
    37.20000    91.79745   357.70239     4.67259    88.20255     2.29761     4.67259
    37.30000    91.79723   357.70266     4.67257    88.20277     2.29734     4.67257
    37.40000    91.79701   357.70292     4.67254    88.20299     2.29708     4.67254
    37.50000    91.79679   357.70319     4.67252    88.20321     2.29681     4.67252
    37.60000    91.79657   357.70346     4.67250    88.20343     2.29654     4.67250
    37.70000    91.79635   357.70372     4.67248    88.20365     2.29628     4.67248
    37.80000    91.79613   357.70399     4.67245    88.20387     2.29601     4.67245
    37.90000    91.79591   357.70426     4.67243    88.20409     2.29574     4.67243
    38.00000    91.79569   357.70453     4.67241    88.20431     2.29547     4.67241
    38.10000    91.79547   357.70479     4.67239    88.20453     2.29521     4.67239
    38.20000    91.79525   357.70506     4.67236    88.20475     2.29494     4.67236
    38.30000    91.79503   357.70533     4.67234    88.20497     2.29467     4.67234
    38.40000    91.79481   357.70559     4.67232    88.20519     2.29441     4.67232
    38.50000    91.79459   357.70586     4.67230    88.20541     2.29414     4.67230
    38.60000    91.79437   357.70613     4.67227    88.20563     2.29387     4.67227
    38.70000    91.79415   357.70639     4.67225    88.20585     2.29361     4.67225
    38.80000    91.79393   357.70666     4.67223    88.20607     2.29334     4.67223
    38.90000    91.79371   357.70692     4.67221    88.20629     2.29308     4.67221
    39.00000    91.79349   357.70719     4.67218    88.20651     2.29281     4.67218
    39.10000    91.79327   357.70746     4.67216    88.20673     2.29254     4.67216
    39.20000    91.79305   357.70772     4.67214    88.20695     2.29228     4.67214
    39.30000    91.79283   357.70799     4.67212    88.20717     2.29201     4.67212
    39.40000    91.79261   357.70825     4.67209    88.20739     2.29175     4.67209
    39.50000    91.79239   357.70852     4.67207    88.20761     2.29148     4.67207
    39.60000    91.79217   357.70879     4.67205    88.20783     2.29121     4.67205
    39.70000    91.79196   357.70905     4.67203    88.20804     2.29095     4.67203
    39.80000    91.79174   357.70932     4.67200    88.20826     2.29068     4.67200
    39.90000    91.79152   357.70958     4.67198    88.20848     2.29042     4.67198
    40.00000    91.79130   357.70985     4.67196    88.20870     2.29015     4.67196
