 # applied field (T), theta (degree), phi (degree), abs for RE 3-4
     0.00000     0.00000     0.00000     0.27092     0.00000     0.00000     0.27092
     0.10000     0.07919   155.24999     0.27092     0.07919   294.75001     0.27092
     0.20000     0.19176   160.51498     0.27093     0.19176   289.48502     0.27093
     0.30000     0.27068   158.97177     0.27094     0.27068   291.02823     0.27094
     0.40000     0.38343   160.50328     0.27096     0.38343   289.49672     0.27096
     0.50000     0.46226   159.59473     0.27097     0.46226   290.40527     0.27097
     0.60000     0.54113   158.94738     0.27099     0.54113   291.05262     0.27099
     0.70000     0.65365   159.83583     0.27102     0.65365   290.16417     0.27102
     0.80000     0.73239   159.32344     0.27105     0.73239   290.67656     0.27105
     0.90000     0.84477   159.94940     0.27109     0.84477   290.05060     0.27109
     1.00000     0.92335   159.52481     0.27112     0.92335   290.47519     0.27112
     1.10000     1.00189   159.16293     0.27116     1.00189   290.83707     0.27116
     1.20000     1.11392   159.63743     0.27121     1.11392   290.36257     0.27121
     1.30000     1.19226   159.31704     0.27126     1.19226   290.68296     0.27126
     1.40000     1.27054   159.03219     0.27130     1.27054   290.96781     0.27130
     1.50000     1.38211   159.40811     0.27137     1.38211   290.59189     0.27137
     1.60000     1.46014   159.14624     0.27142     1.46014   290.85376     0.27142
     1.70000     1.57138   159.45620     0.27150     1.57138   290.54380     0.27150
     1.80000     1.64913   159.21287     0.27156     1.64913   290.78713     0.27156
     1.90000     1.72678   158.98740     0.27163     1.72678   291.01260     0.27163
     2.00000     1.83742   159.24433     0.27172     1.83742   290.75567     0.27172
     2.10000     1.91475   159.03038     0.27179     1.91475   290.96962     0.27179
     2.20000     2.02492   159.24828     0.27189     2.02492   290.75172     0.27189
     2.30000     2.10190   159.04384     0.27197     2.10190   290.95616     0.27197
     2.40000     2.17874   158.84976     0.27205     2.17874   291.15024     0.27205
     2.50000     2.28816   159.03312     0.27216     2.28816   290.96688     0.27216
     2.60000     2.36461   158.84515     0.27225     2.36461   291.15485     0.27225
     2.70000     2.47346   159.00189     0.27238     2.47346   290.99811     0.27238
     2.80000     2.54948   158.81896     0.27247     2.54948   291.18104     0.27247
     2.90000     2.62533   158.64251     0.27257     2.62533   291.35749     0.27257
     3.00000     2.73329   158.77397     0.27271     2.73329   291.22603     0.27271
     3.10000     2.80867   158.60066     0.27281     2.80867   291.39934     0.27281
     3.20000     2.91595   158.71219     0.27296     2.91595   291.28781     0.27296
     3.30000     2.99085   158.54138     0.27307     2.99085   291.45862     0.27307
     3.40000     3.06555   158.37478     0.27318     3.06555   291.62522     0.27318
     3.50000     3.17179   158.46629     0.27334     3.17179   291.53371     0.27334
     3.60000     3.24595   158.30099     0.27346     3.24595   291.69901     0.27346
     3.70000     3.31990   158.13893     0.27358     3.31990   291.86107     0.27358
     3.80000     3.42503   158.21220     0.27376     3.42503   291.78780     0.27376
     3.90000     3.49841   158.05056     0.27388     3.49841   291.94944     0.27388
     4.00000     3.60271   158.10938     0.27407     3.60271   291.89062     0.27407
     4.10000     3.67551   157.94784     0.27420     3.67551   292.05216     0.27420
     4.20000     3.74806   157.78840     0.27434     3.74806   292.21160     0.27434
     4.30000     3.85112   157.83158     0.27454     3.85112   292.16842     0.27454
     4.40000     3.92305   157.67162     0.27468     3.92305   292.32838     0.27468
     4.50000     3.99473   157.51323     0.27482     3.99473   292.48677     0.27482
     4.60000     4.09648   157.54172     0.27503     4.09648   292.45828     0.27503
     4.70000     4.16750   157.38231     0.27519     4.16750   292.61769     0.27519
     4.80000     4.26830   157.39922     0.27540     4.26830   292.60078     0.27540
     4.90000     4.33864   157.23859     0.27556     4.33864   292.76141     0.27556
     5.00000     4.40871   157.07889     0.27572     4.40871   292.92111     0.27572
     5.10000     4.50810   157.08254     0.27595     4.50810   292.91746     0.27595
     5.20000     4.57746   156.92124     0.27612     4.57746   293.07876     0.27612
     5.30000     4.64654   156.76054     0.27629     4.64654   293.23946     0.27629
     5.40000     4.74447   156.75144     0.27653     4.74447   293.24856     0.27653
     5.50000     4.81282   156.58883     0.27670     4.81282   293.41117     0.27670
     5.60000     4.90967   156.56980     0.27695     4.90967   293.43020     0.27695
     5.70000     4.97728   156.40514     0.27713     4.97728   293.59486     0.27713
     5.80000     5.04458   156.24066     0.27732     5.04458   293.75934     0.27732
     5.90000     5.13989   156.20971     0.27758     5.13989   293.79029     0.27758
     6.00000     5.20642   156.04292     0.27777     5.20642   293.95708     0.27777
     6.10000     5.27265   155.87610     0.27796     5.27265   294.12390     0.27796
     6.20000     5.36637   155.83354     0.27823     5.36637   294.16646     0.27823
     6.30000     5.43181   155.66418     0.27842     5.43181   294.33582     0.27842
     6.40000     5.52437   155.61268     0.27870     5.52437   294.38732     0.27870
     6.50000     5.58902   155.44067     0.27891     5.58902   294.55933     0.27891
     6.60000     5.65334   155.26835     0.27911     5.65334   294.73165     0.27911
     6.70000     5.74426   155.20571     0.27940     5.74426   294.79429     0.27940
     6.80000     5.80777   155.03055     0.27961     5.80777   294.96945     0.27961
     6.90000     5.87096   154.85492     0.27982     5.87096   295.14508     0.27982
     7.00000     5.96019   154.78130     0.28012     5.96019   295.21870     0.28012
     7.10000     6.02256   154.60266     0.28034     6.02256   295.39734     0.28034
     7.20000     6.08461   154.42341     0.28055     6.08461   295.57659     0.28055
     7.30000     6.17213   154.33894     0.28086     6.17213   295.66106     0.28086
     7.40000     6.23334   154.15651     0.28109     6.23334   295.84349     0.28109
     7.50000     6.29423   153.97335     0.28131     6.29423   296.02665     0.28131
     7.60000     6.38003   153.87815     0.28163     6.38003   296.12185     0.28163
     7.70000     6.44008   153.69166     0.28186     6.44008   296.30834     0.28186
     7.80000     6.52466   153.58835     0.28219     6.52466   296.41165     0.28219
     7.90000     6.58387   153.39846     0.28242     6.58387   296.60154     0.28242
     8.00000     6.64275   153.20766     0.28266     6.64275   296.79234     0.28266
     8.10000     6.72559   153.09379     0.28299     6.72559   296.90621     0.28299
     8.20000     6.78363   152.89945     0.28323     6.78363   297.10055     0.28323
     8.30000     6.84135   152.70410     0.28347     6.84135   297.29590     0.28347
     8.40000     6.92245   152.57969     0.28382     6.92245   297.42031     0.28382
     8.50000     6.97933   152.38069     0.28406     6.97933   297.61931     0.28406
     8.60000     7.03589   152.18058     0.28431     7.03589   297.81942     0.28431
     8.70000     7.11525   152.04566     0.28466     7.11525   297.95434     0.28466
     8.80000     7.17098   151.84177     0.28491     7.17098   298.15823     0.28491
     8.90000     7.22638   151.63670     0.28517     7.22638   298.36330     0.28517
     9.00000     7.30402   151.49129     0.28553     7.30402   298.50871     0.28553
     9.10000     7.35861   151.28232     0.28578     7.35861   298.71768     0.28578
     9.20000     7.41288   151.07210     0.28604     7.41288   298.92790     0.28604
     9.30000     7.48881   150.91618     0.28641     7.48881   299.08382     0.28641
     9.40000     7.54228   150.70196     0.28667     7.54228   299.29804     0.28667
     9.50000     7.59544   150.48641     0.28694     7.59544   299.51359     0.28694
     9.60000     7.66968   150.31997     0.28731     7.66968   299.68003     0.28731
     9.70000     7.72205   150.10032     0.28758     7.72205   299.89968     0.28758
     9.80000     7.77412   149.87927     0.28785     7.77412   300.12073     0.28785
     9.90000     7.84671   149.70230     0.28823     7.84671   300.29770     0.28823
    10.00000     7.89800   149.47706     0.28850     7.89800   300.52294     0.28850
    10.10000     7.94901   149.25036     0.28877     7.94901   300.74964     0.28877
    10.20000     8.01998   149.06283     0.28916     8.01998   300.93717     0.28916
    10.30000     8.07023   148.83185     0.28944     8.07023   301.16815     0.28944
    10.40000     8.12021   148.59935     0.28971     8.12021   301.40065     0.28971
    10.50000     8.16991   148.36532     0.28999     8.16991   301.63468     0.28999
    10.60000     8.23886   148.16437     0.29039     8.23886   301.83563     0.29039
    10.70000     8.28784   147.92594     0.29067     8.28784   302.07406     0.29067
    10.80000     8.33657   147.68593     0.29095     8.33657   302.31407     0.29095
    10.90000     8.40400   147.47432     0.29135     8.40400   302.52568     0.29135
    11.00000     8.45204   147.22984     0.29164     8.45204   302.77016     0.29164
    11.10000     8.49983   146.98373     0.29193     8.49983   303.01627     0.29193
    11.20000     8.56581   146.76144     0.29233     8.56581   303.23856     0.29233
    11.30000     8.61295   146.51078     0.29262     8.61295   303.48922     0.29262
    11.40000     8.65985   146.25846     0.29291     8.65985   303.74154     0.29291
    11.50000     8.72444   146.02547     0.29332     8.72444   303.97453     0.29332
    11.60000     8.77073   145.76854     0.29361     8.77073   304.23146     0.29361
    11.70000     8.81680   145.50990     0.29390     8.81680   304.49010     0.29390
    11.80000     8.86267   145.24955     0.29420     8.86267   304.75045     0.29420
    11.90000     8.92557   145.00288     0.29461     8.92557   304.99712     0.29461
    12.00000     8.97087   144.73784     0.29491     8.97087   305.26216     0.29491
    12.10000     9.01598   144.47106     0.29521     9.01598   305.52894     0.29521
    12.20000     9.07767   144.21362     0.29563     9.07767   305.78638     0.29563
    12.30000     9.12226   143.94212     0.29592     9.12226   306.05788     0.29592
    12.40000     9.16668   143.66884     0.29622     9.16668   306.33116     0.29622
    12.50000     9.21094   143.39378     0.29652     9.21094   306.60622     0.29652
    12.60000     9.27119   143.12258     0.29695     9.27119   306.87742     0.29695
    12.70000     9.31499   142.84275     0.29725     9.31499   307.15725     0.29725
    12.80000     9.35865   142.56112     0.29755     9.35865   307.43888     0.29755
    12.90000     9.41788   142.27914     0.29798     9.41788   307.72086     0.29798
    13.00000     9.46114   141.99271     0.29828     9.46114   308.00729     0.29828
    13.10000     9.50428   141.70446     0.29858     9.50428   308.29554     0.29858
    13.20000     9.54730   141.41440     0.29889     9.54730   308.58560     0.29889
    13.30000     9.60539   141.11867     0.29932     9.60539   308.88133     0.29932
    13.40000     9.64809   140.82380     0.29962     9.64809   309.17620     0.29962
    13.50000     9.69069   140.52710     0.29993     9.69069   309.47290     0.29993
    13.60000     9.73322   140.22857     0.30023     9.73322   309.77143     0.30023
    13.70000     9.79034   139.91913     0.30067     9.79034   310.08087     0.30067
    13.80000     9.83262   139.61579     0.30097     9.83262   310.38421     0.30097
    13.90000     9.87485   139.31063     0.30128     9.87485   310.68937     0.30128
    14.00000     9.91702   139.00365     0.30159     9.91702   310.99635     0.30159
    14.10000     9.97338   138.68058     0.30202     9.97338   311.31942     0.30202
    14.20000    10.01539   138.36881     0.30233    10.01539   311.63119     0.30233
    14.30000    10.05739   138.05523     0.30264    10.05739   311.94477     0.30264
    14.40000    10.09937   137.73983     0.30294    10.09937   312.26017     0.30294
    14.50000    10.15517   137.40328     0.30338    10.15517   312.59672     0.30338
    14.60000    10.19708   137.08315     0.30369    10.19708   312.91685     0.30369
    14.70000    10.23901   136.76122     0.30400    10.23901   313.23878     0.30400
    14.80000    10.28097   136.43751     0.30430    10.28097   313.56249     0.30430
    14.90000    10.33642   136.08766     0.30474    10.33642   313.91234     0.30474
    15.00000    10.37840   135.75928     0.30505    10.37840   314.24072     0.30505
    15.10000    10.42044   135.42915     0.30536    10.42044   314.57085     0.30536
    15.20000    10.46254   135.09727     0.30566    10.46254   314.90273     0.30566
    15.30000    10.50473   134.76364     0.30597    10.50473   315.23636     0.30597
    15.40000    10.56012   134.39791     0.30641    10.56012   315.60209     0.30641
    15.50000    10.60244   134.05975     0.30672    10.60244   315.94025     0.30672
    15.60000    10.64488   133.71989     0.30702    10.64488   316.28011     0.30702
    15.70000    10.68744   133.37835     0.30733    10.68744   316.62165     0.30733
    15.80000    10.73014   133.03512     0.30764    10.73014   316.96488     0.30764
    15.90000    10.78582   132.65398     0.30807    10.78582   317.34602     0.30807
    16.00000    10.82878   132.30640     0.30838    10.82878   317.69360     0.30838
    16.10000    10.87190   131.95719     0.30869    10.87190   318.04281     0.30869
    16.20000    10.91521   131.60638     0.30899    10.91521   318.39362     0.30899
    16.30000    10.95870   131.25398     0.30930    10.95870   318.74602     0.30930
    16.40000    11.01508   130.85802     0.30973    11.01508   319.14198     0.30973
    16.50000    11.05896   130.50148     0.31004    11.05896   319.49852     0.31004
    16.60000    11.10308   130.14340     0.31034    11.10308   319.85660     0.31034
    16.70000    11.14743   129.78382     0.31064    11.14743   320.21618     0.31064
    16.80000    11.19202   129.42276     0.31095    11.19202   320.57724     0.31095
    16.90000    11.24949   129.01273     0.31138    11.24949   320.98727     0.31138
    17.00000    11.29462   128.64779     0.31168    11.29462   321.35221     0.31168
    17.10000    11.34002   128.28143     0.31198    11.34002   321.71857     0.31198
    17.20000    11.38572   127.91370     0.31228    11.38572   322.08630     0.31228
    17.30000    11.43173   127.54461     0.31258    11.43173   322.45539     0.31258
    17.40000    11.47806   127.17418     0.31288    11.47806   322.82582     0.31288
    17.50000    11.53739   126.74868     0.31331    11.53739   323.25132     0.31331
    17.60000    11.58441   126.37474     0.31361    11.58441   323.62526     0.31361
    17.70000    11.63178   125.99956     0.31391    11.63178   324.00044     0.31391
    17.80000    11.67952   125.62317     0.31420    11.67952   324.37683     0.31420
    17.90000    11.72763   125.24560     0.31450    11.72763   324.75440     0.31450
    18.00000    11.77613   124.86687     0.31479    11.77613   325.13313     0.31479
    18.10000    11.83794   124.42733     0.31521    11.83794   325.57267     0.31521
    18.20000    11.88730   124.04552     0.31551    11.88730   325.95448     0.31551
    18.30000    11.93709   123.66266     0.31580    11.93709   326.33734     0.31580
    18.40000    11.98732   123.27878     0.31609    11.98732   326.72122     0.31609
    18.50000    12.03799   122.89391     0.31638    12.03799   327.10609     0.31638
    18.60000    12.08913   122.50810     0.31667    12.08913   327.49190     0.31667
    18.70000    12.14073   122.12137     0.31696    12.14073   327.87863     0.31696
    18.80000    12.19282   121.73377     0.31725    12.19282   328.26623     0.31725
    18.90000    12.25885   121.27851     0.31766    12.25885   328.72149     0.31766
    19.00000    12.31202   120.88847     0.31795    12.31202   329.11153     0.31795
    19.10000    12.36571   120.49766     0.31823    12.36571   329.50234     0.31823
    19.20000    12.41993   120.10612     0.31852    12.41993   329.89388     0.31852
    19.30000    12.47470   119.71390     0.31880    12.47470   330.28610     0.31880
    19.40000    12.53001   119.32103     0.31908    12.53001   330.67897     0.31908
    19.50000    12.58590   118.92755     0.31936    12.58590   331.07245     0.31936
    19.60000    12.64235   118.53349     0.31964    12.64235   331.46651     0.31964
    19.70000    12.69940   118.13889     0.31992    12.69940   331.86111     0.31992
    19.80000    12.77143   117.67000     0.32032    12.77143   332.33000     0.32032
    19.90000    12.82981   117.27378     0.32060    12.82981   332.72622     0.32060
    20.00000    12.88880   116.87715     0.32087    12.88880   333.12285     0.32087
    20.10000    12.94843   116.48016     0.32115    12.94843   333.51984     0.32115
    20.20000    13.00870   116.08285     0.32142    13.00870   333.91715     0.32142
    20.30000    13.06963   115.68524     0.32169    13.06963   334.31476     0.32169
    20.40000    13.13123   115.28740     0.32196    13.13123   334.71260     0.32196
    20.50000    13.19350   114.88934     0.32223    13.19350   335.11066     0.32223
    20.60000    13.25645   114.49112     0.32250    13.25645   335.50888     0.32250
    20.70000    13.32011   114.09278     0.32276    13.32011   335.90722     0.32276
    20.80000    13.38447   113.69436     0.32303    13.38447   336.30564     0.32303
    20.90000    13.44955   113.29589     0.32329    13.44955   336.70411     0.32329
    21.00000    13.51535   112.89741     0.32355    13.51535   337.10259     0.32355
    21.10000    13.59828   112.41721     0.32393    13.59828   337.58279     0.32393
    21.20000    13.66575   112.01837     0.32419    13.66575   337.98163     0.32419
    21.30000    13.73398   111.61966     0.32445    13.73398   338.38034     0.32445
    21.40000    13.80299   111.22112     0.32470    13.80299   338.77888     0.32470
    21.50000    13.87277   110.82279     0.32496    13.87277   339.17721     0.32496
    21.60000    13.94335   110.42472     0.32521    13.94335   339.57528     0.32521
    21.70000    14.01472   110.02694     0.32546    14.01472   339.97306     0.32546
    21.80000    14.08691   109.62949     0.32571    14.08691   340.37051     0.32571
    21.90000    14.15991   109.23242     0.32596    14.15991   340.76758     0.32596
    22.00000    14.23375   108.83575     0.32621    14.23375   341.16425     0.32621
    22.10000    14.30842   108.43954     0.32645    14.30842   341.56046     0.32645
    22.20000    14.38394   108.04381     0.32670    14.38394   341.95619     0.32670
    22.30000    14.46031   107.64861     0.32694    14.46031   342.35139     0.32694
    22.40000    14.53755   107.25398     0.32718    14.53755   342.74602     0.32718
    22.50000    14.61566   106.85994     0.32742    14.61566   343.14006     0.32742
    22.60000    14.69466   106.46655     0.32766    14.69466   343.53345     0.32766
    22.70000    14.77455   106.07383     0.32789    14.77455   343.92617     0.32789
    22.80000    14.85533   105.68183     0.32813    14.85533   344.31817     0.32813
    22.90000    14.93703   105.29057     0.32836    14.93703   344.70943     0.32836
    23.00000    15.01964   104.90010     0.32859    15.01964   345.09990     0.32859
    23.10000    15.10317   104.51044     0.32882    15.10317   345.48956     0.32882
    23.20000    15.18764   104.12164     0.32905    15.18764   345.87836     0.32905
    23.30000    15.27305   103.73373     0.32927    15.27305   346.26627     0.32927
    23.40000    15.35941   103.34673     0.32950    15.35941   346.65327     0.32950
    23.50000    15.44673   102.96069     0.32972    15.44673   347.03931     0.32972
    23.60000    15.53501   102.57564     0.32994    15.53501   347.42436     0.32994
    23.70000    15.62426   102.19161     0.33016    15.62426   347.80839     0.33016
    23.80000    15.71450   101.80862     0.33038    15.71450   348.19138     0.33038
    23.90000    15.80572   101.42672     0.33059    15.80572   348.57328     0.33059
    24.00000    15.87484   101.13598     0.33071    15.87484   348.86402     0.33071
    24.10000    15.96778   100.75641     0.33092    15.96778   349.24359     0.33092
    24.20000    16.06172   100.37799     0.33113    16.06172   349.62201     0.33113
    24.30000    16.15667   100.00076     0.33134    16.15667   349.99924     0.33134
    24.40000    16.25265    99.62475     0.33154    16.25265   350.37525     0.33154
    24.50000    16.34965    99.24997     0.33175    16.34965   350.75003     0.33175
    24.60000    16.44769    98.87646     0.33195    16.44769   351.12354     0.33195
    24.70000    16.54677    98.50424     0.33215    16.54677   351.49576     0.33215
    24.80000    16.64690    98.13334     0.33235    16.64690   351.86666     0.33235
    24.90000    16.74809    97.76379     0.33255    16.74809   352.23621     0.33255
    25.00000    16.85033    97.39560     0.33274    16.85033   352.60440     0.33274
    25.10000    16.95365    97.02881     0.33293    16.95365   352.97119     0.33293
    25.20000    17.05804    96.66342     0.33312    17.05804   353.33658     0.33312
    25.30000    17.13659    96.38954     0.33322    17.13659   353.61046     0.33322
    25.40000    17.24283    96.02698     0.33341    17.24283   353.97302     0.33341
    25.50000    17.35015    95.66590     0.33360    17.35015   354.33410     0.33360
    25.60000    17.45858    95.30630     0.33378    17.45858   354.69370     0.33378
    25.70000    17.56811    94.94821     0.33396    17.56811   355.05179     0.33396
    25.80000    17.67875    94.59165     0.33414    17.67875   355.40835     0.33414
    25.90000    17.79051    94.23664     0.33432    17.79051   355.76336     0.33432
    26.00000    17.90339    93.88319     0.33449    17.90339   356.11681     0.33449
    26.10000    17.98792    93.62048     0.33458    17.98792   356.37952     0.33458
    26.20000    18.10271    93.27007     0.33475    18.10271   356.72993     0.33475
    26.30000    18.21865    92.92127     0.33492    18.21865   357.07873     0.33492
    26.40000    18.33573    92.57408     0.33509    18.33573   357.42592     0.33509
    26.50000    18.45395    92.22853     0.33526    18.45395   357.77147     0.33526
    26.60000    18.57333    91.88463     0.33542    18.57333   358.11537     0.33542
    26.70000    18.69387    91.54240     0.33558    18.69387   358.45760     0.33558
    26.80000    18.78375    91.28978     0.33566    18.78375   358.71022     0.33566
    26.90000    18.90627    90.95071     0.33582    18.90627   359.04929     0.33582
    27.00000    19.02996    90.61334     0.33598    19.02996   359.38666     0.33598
    27.10000    19.15483    90.27767     0.33613    19.15483   359.72233     0.33613
    27.20000    19.28089    89.94372     0.33628    19.28089     0.05628     0.33628
    27.30000    19.37460    89.69834     0.33635    19.37460     0.30166     0.33635
    27.40000    19.50267    89.36762     0.33650    19.50267     0.63238     0.33650
    27.50000    19.63194    89.03864     0.33665    19.63194     0.96136     0.33665
    27.60000    19.76241    88.71141     0.33679    19.76241     1.28859     0.33679
    27.70000    19.89410    88.38594     0.33693    19.89410     1.61406     0.33693
    27.80000    19.99169    88.14783     0.33700    19.99169     1.85217     0.33700
    27.90000    20.12543    87.82563     0.33714    20.12543     2.17437     0.33714
    28.00000    20.26039    87.50521     0.33727    20.26039     2.49479     0.33727
    28.10000    20.39658    87.18656     0.33741    20.39658     2.81344     0.33741
    28.20000    20.53401    86.86970     0.33754    20.53401     3.13030     0.33754
    28.30000    20.63555    86.63886     0.33760    20.63555     3.36114     0.33760
    28.40000    20.77506    86.32531     0.33772    20.77506     3.67469     0.33772
    28.50000    20.91582    86.01354     0.33785    20.91582     3.98646     0.33785
    28.60000    21.05784    85.70358     0.33797    21.05784     4.29642     0.33797
    28.70000    21.16252    85.47848     0.33803    21.16252     4.52152     0.33803
    28.80000    21.30666    85.17183     0.33815    21.30666     4.82817     0.33815
    28.90000    21.45206    84.86698     0.33826    21.45206     5.13302     0.33826
    29.00000    21.59873    84.56394     0.33838    21.59873     5.43606     0.33838
    29.10000    21.70659    84.34454     0.33843    21.70659     5.65546     0.33843
    29.20000    21.85541    84.04480     0.33854    21.85541     5.95520     0.33854
    29.30000    22.00552    83.74688     0.33865    22.00552     6.25312     0.33865
    29.40000    22.15692    83.45078     0.33875    22.15692     6.54922     0.33875
    29.50000    22.26799    83.23702     0.33880    22.26799     6.76298     0.33880
    29.60000    22.42156    82.94421     0.33890    22.42156     7.05579     0.33890
    29.70000    22.57644    82.65321     0.33900    22.57644     7.34679     0.33900
    29.80000    22.73263    82.36402     0.33910    22.73263     7.63598     0.33910
    29.90000    22.84695    82.15585     0.33914    22.84695     7.84415     0.33914
    30.00000    23.00535    81.86994     0.33923    23.00535     8.13006     0.33923
    30.10000    23.16507    81.58584     0.33932    23.16507     8.41416     0.33932
    30.20000    23.28178    81.38174     0.33936    23.28178     8.61826     0.33936
    30.30000    23.44372    81.10089     0.33944    23.44372     8.89911     0.33944
    30.40000    23.60701    80.82185     0.33953    23.60701     9.17815     0.33953
    30.50000    23.72613    80.62177     0.33956    23.72613     9.37823     0.33956
    30.60000    23.89166    80.34597     0.33964    23.89166     9.65403     0.33964
    30.70000    24.05855    80.07196     0.33972    24.05855     9.92804     0.33972
    30.80000    24.18009    79.87586     0.33975    24.18009    10.12414     0.33975
    30.90000    24.34925    79.60506     0.33983    24.34925    10.39494     0.33983
    31.00000    24.51978    79.33605     0.33990    24.51978    10.66395     0.33990
    31.10000    24.64377    79.14388     0.33992    24.64377    10.85612     0.33992
    31.20000    24.81659    78.87805     0.33999    24.81659    11.12195     0.33999
    31.30000    24.99079    78.61400     0.34006    24.99079    11.38600     0.34006
    31.40000    25.11726    78.42572     0.34008    25.11726    11.57428     0.34008
    31.50000    25.29378    78.16482     0.34014    25.29378    11.83518     0.34014
    31.60000    25.47169    77.90569     0.34020    25.47169    12.09431     0.34020
    31.70000    25.60064    77.72123     0.34022    25.60064    12.27877     0.34022
    31.80000    25.78090    77.46523     0.34027    25.78090    12.53477     0.34027
    31.90000    25.96257    77.21097     0.34033    25.96257    12.78903     0.34033
    32.00000    26.09404    77.03029     0.34034    26.09404    12.96971     0.34034
    32.10000    26.27807    76.77913     0.34039    26.27807    13.22087     0.34039
    32.20000    26.46353    76.52970     0.34044    26.46353    13.47030     0.34044
    32.30000    26.59753    76.35275     0.34045    26.59753    13.64725     0.34045
    32.40000    26.78538    76.10638     0.34049    26.78538    13.89362     0.34049
    32.50000    26.92098    75.93179     0.34050    26.92098    14.06821     0.34050
    32.60000    27.11123    75.68846     0.34054    27.11123    14.31154     0.34054
    32.70000    27.30294    75.44684     0.34058    27.30294    14.55316     0.34058
    32.80000    27.44111    75.27588     0.34058    27.44111    14.72412     0.34058
    32.90000    27.63524    75.03727     0.34062    27.63524    14.96273     0.34062
    33.00000    27.83085    74.80035     0.34065    27.83085    15.19965     0.34065
    33.10000    27.97162    74.63297     0.34065    27.97162    15.36703     0.34065
    33.20000    28.16968    74.39902     0.34068    28.16968    15.60098     0.34068
    33.30000    28.31208    74.23390     0.34067    28.31208    15.76610     0.34067
    33.40000    28.51261    74.00289     0.34070    28.51261    15.99711     0.34070
    33.50000    28.71464    73.77355     0.34072    28.71464    16.22645     0.34072
    33.60000    28.85968    73.61192     0.34071    28.85968    16.38808     0.34071
    33.70000    29.06420    73.38549     0.34073    29.06420    16.61451     0.34073
    33.80000    29.21090    73.22606     0.34072    29.21090    16.77394     0.34072
    33.90000    29.41794    73.00252     0.34073    29.41794    16.99748     0.34073
    34.00000    29.56631    72.84526     0.34072    29.56631    17.15474     0.34072
    34.10000    29.77588    72.62458     0.34073    29.77588    17.37542     0.34073
    34.20000    29.98698    72.40552     0.34074    29.98698    17.59448     0.34074
    34.30000    30.13804    72.25164     0.34073    30.13804    17.74836     0.34073
    34.40000    30.35170    72.03541     0.34073    30.35170    17.96459     0.34073
    34.50000    30.50446    71.88364     0.34072    30.50446    18.11636     0.34072
    34.60000    30.72070    71.67021     0.34072    30.72070    18.32979     0.34072
    34.70000    30.87516    71.52054     0.34070    30.87516    18.47946     0.34070
    34.80000    31.09399    71.30989     0.34069    31.09399    18.69011     0.34069
    34.90000    31.31439    71.10082     0.34069    31.31439    18.89918     0.34069
    35.00000    31.47161    70.95439     0.34067    31.47161    19.04561     0.34067
    35.10000    31.69463    70.74807     0.34066    31.69463    19.25193     0.34066
    35.20000    31.85358    70.60369     0.34063    31.85358    19.39631     0.34063
    35.30000    32.07924    70.40008     0.34062    32.07924    19.59992     0.34062
    35.40000    32.23993    70.25771     0.34059    32.23993    19.74229     0.34059
    35.50000    32.46825    70.05681     0.34058    32.46825    19.94319     0.34058
    35.60000    32.63069    69.91644     0.34055    32.63069    20.08356     0.34055
    35.70000    32.86168    69.71821     0.34053    32.86168    20.28179     0.34053
    35.80000    33.02588    69.57982     0.34050    33.02588    20.42018     0.34050
    35.90000    33.25957    69.38424     0.34047    33.25957    20.61576     0.34047
    36.00000    33.49488    69.19018     0.34045    33.49488    20.80982     0.34045
    36.10000    33.66193    69.05486     0.34041    33.66193    20.94514     0.34041
    36.20000    33.89997    68.86342     0.34039    33.89997    21.13658     0.34039
    36.30000    34.06881    68.73002     0.34035    34.06881    21.26998     0.34035
    36.40000    34.30959    68.54117     0.34032    34.30959    21.45883     0.34032
    36.50000    34.48023    68.40968     0.34028    34.48023    21.59032     0.34028
    36.60000    34.72376    68.22341     0.34024    34.72376    21.77659     0.34024
    36.70000    34.89621    68.09380     0.34020    34.89621    21.90620     0.34020
    36.80000    35.14252    67.91009     0.34016    35.14252    22.08991     0.34016
    36.90000    35.31679    67.78235     0.34012    35.31679    22.21765     0.34012
    37.00000    35.56589    67.60117     0.34008    35.56589    22.39883     0.34008
    37.10000    35.74199    67.47528     0.34003    35.74199    22.52472     0.34003
    37.20000    35.99389    67.29661     0.33999    35.99389    22.70339     0.33999
    37.30000    36.17184    67.17255     0.33994    36.17184    22.82745     0.33994
    37.40000    36.42657    66.99638     0.33989    36.42657    23.00362     0.33989
    37.50000    36.60637    66.87412     0.33985    36.60637    23.12588     0.33985
    37.60000    36.86394    66.70043     0.33979    36.86394    23.29957     0.33979
    37.70000    37.12324    66.52815     0.33974    37.12324    23.47185     0.33974
    37.80000    37.30603    66.40872     0.33969    37.30603    23.59128     0.33969
    37.90000    37.56820    66.23889     0.33963    37.56820    23.76111     0.33963
    38.00000    37.75287    66.12123     0.33958    37.75287    23.87877     0.33958
    38.10000    38.01793    65.95383     0.33952    38.01793    24.04617     0.33952
    38.20000    38.20449    65.83792     0.33946    38.20449    24.16208     0.33946
    38.30000    38.47244    65.67292     0.33940    38.47244    24.32708     0.33940
    38.40000    38.66090    65.55875     0.33935    38.66090    24.44125     0.33935
    38.50000    38.93178    65.39614     0.33928    38.93178    24.60386     0.33928
    38.60000    39.12214    65.28369     0.33922    39.12214    24.71631     0.33922
    38.70000    39.39595    65.12345     0.33915    39.39595    24.87655     0.33915
    38.80000    39.58823    65.01270     0.33909    39.58823    24.98730     0.33909
    38.90000    39.86499    64.85481     0.33902    39.86499    25.14519     0.33902
    39.00000    40.05919    64.74575     0.33896    40.05919    25.25425     0.33896
    39.10000    40.33891    64.59020     0.33889    40.33891    25.40980     0.33889
    39.20000    40.53505    64.48282     0.33882    40.53505    25.51718     0.33882
    39.30000    40.81775    64.32959     0.33875    40.81775    25.67041     0.33875
    39.40000    41.10226    64.17770     0.33867    41.10226    25.82230     0.33867
    39.50000    41.30152    64.07293     0.33860    41.30152    25.92707     0.33860
    39.60000    41.58903    63.92334     0.33852    41.58903    26.07666     0.33852
    39.70000    41.79024    63.82021     0.33845    41.79024    26.17979     0.33845
    39.80000    42.08077    63.67290     0.33837    42.08077    26.32710     0.33837
    39.90000    42.28393    63.57140     0.33830    42.28393    26.42860     0.33830
    40.00000    42.57749    63.42635     0.33822    42.57749    26.57365     0.33822
