 # applied field (T), theta (degree), phi (degree), abs for RE 3-4
     0.00000     0.00000     0.00000     4.71935     0.00000     0.00000     4.71935
     0.10000     0.11847    53.06935     4.71935     0.11847    36.93065     4.71935
     0.20000     0.27547    53.07338     4.71935     0.27547    36.92662     4.71935
     0.30000     0.39394    53.07204     4.71935     0.39394    36.92796     4.71935
     0.40000     0.55095    53.07308     4.71934     0.55095    36.92692     4.71934
     0.50000     0.66943    53.07217     4.71934     0.66943    36.92783     4.71934
     0.60000     0.78792    53.07143     4.71934     0.78792    36.92857     4.71934
     0.70000     0.94495    53.07179     4.71933     0.94495    36.92821     4.71933
     0.80000     1.06346    53.07108     4.71933     1.06346    36.92892     4.71933
     0.90000     1.22053    53.07112     4.71932     1.22053    36.92888     4.71932
     1.00000     1.33906    53.07039     4.71931     1.33906    36.92961     4.71931
     1.10000     1.45761    53.06968     4.71931     1.45761    36.93032     4.71931
     1.20000     1.61473    53.06945     4.71930     1.61473    36.93055     4.71930
     1.30000     1.73331    53.06868     4.71929     1.73331    36.93132     4.71929
     1.40000     1.85190    53.06791     4.71928     1.85190    36.93209     4.71928
     1.50000     2.00909    53.06744     4.71927     2.00909    36.93256     4.71927
     1.60000     2.12773    53.06660     4.71926     2.12773    36.93340     4.71926
     1.70000     2.28498    53.06597     4.71924     2.28498    36.93403     4.71924
     1.80000     2.40367    53.06506     4.71923     2.40367    36.93494     4.71923
     1.90000     2.52238    53.06413     4.71922     2.52238    36.93587     4.71922
     2.00000     2.67973    53.06330     4.71920     2.67973    36.93670     4.71920
     2.10000     2.79850    53.06229     4.71919     2.79850    36.93771     4.71919
     2.20000     2.95593    53.06132     4.71917     2.95593    36.93868     4.71917
     2.30000     3.07476    53.06023     4.71916     3.07476    36.93977     4.71916
     2.40000     3.19362    53.05912     4.71914     3.19362    36.94088     4.71914
     2.50000     3.35117    53.05796     4.71912     3.35117    36.94204     4.71912
     2.60000     3.47010    53.05677     4.71910     3.47010    36.94323     4.71910
     2.70000     3.62776    53.05547     4.71908     3.62776    36.94453     4.71908
     2.80000     3.74677    53.05420     4.71906     3.74677    36.94580     4.71906
     2.90000     3.86581    53.05290     4.71905     3.86581    36.94710     4.71905
     3.00000     4.02362    53.05142     4.71902     4.02362    36.94858     4.71902
     3.10000     4.14275    53.05004     4.71900     4.14275    36.94996     4.71900
     3.20000     4.30068    53.04843     4.71897     4.30068    36.95157     4.71897
     3.30000     4.41991    53.04696     4.71895     4.41991    36.95304     4.71895
     3.40000     4.53917    53.04546     4.71893     4.53917    36.95454     4.71893
     3.50000     4.69728    53.04368     4.71890     4.69728    36.95632     4.71890
     3.60000     4.81665    53.04209     4.71888     4.81665    36.95791     4.71888
     3.70000     4.93606    53.04046     4.71886     4.93606    36.95954     4.71886
     3.80000     5.09437    53.03850     4.71882     5.09437    36.96150     4.71882
     3.90000     5.21389    53.03679     4.71880     5.21389    36.96321     4.71880
     4.00000     5.37235    53.03471     4.71876     5.37235    36.96529     4.71876
     4.10000     5.49199    53.03291     4.71874     5.49199    36.96709     4.71874
     4.20000     5.61167    53.03108     4.71871     5.61167    36.96892     4.71871
     4.30000     5.77036    53.02882     4.71868     5.77036    36.97118     4.71868
     4.40000     5.89017    53.02690     4.71865     5.89017    36.97310     4.71865
     4.50000     6.01004    53.02494     4.71862     6.01004    36.97506     4.71862
     4.60000     6.16897    53.02250     4.71858     6.16897    36.97750     4.71858
     4.70000     6.28897    53.02045     4.71855     6.28897    36.97955     4.71855
     4.80000     6.44809    53.01789     4.71851     6.44809    36.98211     4.71851
     4.90000     6.56822    53.01575     4.71848     6.56822    36.98425     4.71848
     5.00000     6.68842    53.01358     4.71844     6.68842    36.98642     4.71844
     5.10000     6.84781    53.01084     4.71840     6.84781    36.98916     4.71840
     5.20000     6.96816    53.00857     4.71837     6.96816    36.99143     4.71837
     5.30000     7.08857    53.00627     4.71833     7.08857    36.99373     4.71833
     5.40000     7.24824    53.00335     4.71829     7.24824    36.99665     4.71829
     5.50000     7.36881    53.00096     4.71825     7.36881    36.99904     4.71825
     5.60000     7.52870    52.99791     4.71821     7.52870    37.00209     4.71821
     5.70000     7.64943    52.99542     4.71817     7.64943    37.00458     4.71817
     5.80000     7.77023    52.99290     4.71813     7.77023    37.00710     4.71813
     5.90000     7.93043    52.98967     4.71808     7.93043    37.01033     4.71808
     6.00000     8.05140    52.98705     4.71804     8.05140    37.01295     4.71804
     6.10000     8.17245    52.98440     4.71800     8.17245    37.01560     4.71800
     6.20000     8.33298    52.98099     4.71795     8.33298    37.01901     4.71795
     6.30000     8.45421    52.97824     4.71791     8.45421    37.02176     4.71791
     6.40000     8.61499    52.97470     4.71786     8.61499    37.02530     4.71786
     6.50000     8.73640    52.97186     4.71781     8.73640    37.02814     4.71781
     6.60000     8.85790    52.96897     4.71777     8.85790    37.03103     4.71777
     6.70000     9.01903    52.96525     4.71771     9.01903    37.03475     4.71771
     6.80000     9.14072    52.96227     4.71767     9.14072    37.03773     4.71767
     6.90000     9.26249    52.95925     4.71763     9.26249    37.04075     4.71763
     7.00000     9.42401    52.95534     4.71757     9.42401    37.04466     4.71757
     7.10000     9.54599    52.95222     4.71752     9.54599    37.04778     4.71752
     7.20000     9.66805    52.94906     4.71747     9.66805    37.05094     4.71747
     7.30000     9.82996    52.94497     4.71741     9.82996    37.05503     4.71741
     7.40000     9.95223    52.94171     4.71736     9.95223    37.05829     4.71736
     7.50000    10.07460    52.93841     4.71731    10.07460    37.06159     4.71731
     7.60000    10.23692    52.93414     4.71725    10.23692    37.06586     4.71725
     7.70000    10.35951    52.93074     4.71720    10.35951    37.06926     4.71720
     7.80000    10.52212    52.92633     4.71713    10.52212    37.07367     4.71713
     7.90000    10.64494    52.92283     4.71708    10.64494    37.07717     4.71708
     8.00000    10.76785    52.91929     4.71703    10.76785    37.08071     4.71703
     8.10000    10.93090    52.91469     4.71696    10.93090    37.08531     4.71696
     8.20000    11.05405    52.91104     4.71691    11.05405    37.08896     4.71691
     8.30000    11.17730    52.90736     4.71685    11.17730    37.09264     4.71685
     8.40000    11.34081    52.90256     4.71678    11.34081    37.09744     4.71678
     8.50000    11.46430    52.89878     4.71673    11.46430    37.10122     4.71673
     8.60000    11.58791    52.89495     4.71667    11.58791    37.10505     4.71667
     8.70000    11.75188    52.88996     4.71660    11.75188    37.11004     4.71660
     8.80000    11.87573    52.88603     4.71654    11.87573    37.11397     4.71654
     8.90000    11.99970    52.88205     4.71648    11.99970    37.11795     4.71648
     9.00000    12.16416    52.87687     4.71641    12.16416    37.12313     4.71641
     9.10000    12.28838    52.87279     4.71635    12.28838    37.12721     4.71635
     9.20000    12.41272    52.86866     4.71629    12.41272    37.13134     4.71629
     9.30000    12.57769    52.86328     4.71621    12.57769    37.13672     4.71621
     9.40000    12.70229    52.85905     4.71615    12.70229    37.14095     4.71615
     9.50000    12.82702    52.85477     4.71608    12.82702    37.14523     4.71608
     9.60000    12.99250    52.84919     4.71600    12.99250    37.15081     4.71600
     9.70000    13.11750    52.84481     4.71594    13.11750    37.15519     4.71594
     9.80000    13.24263    52.84038     4.71587    13.24263    37.15962     4.71587
     9.90000    13.40865    52.83459     4.71579    13.40865    37.16541     4.71579
    10.00000    13.53406    52.83006     4.71572    13.53406    37.16994     4.71572
    10.10000    13.65959    52.82548     4.71566    13.65959    37.17452     4.71566
    10.20000    13.82616    52.81948     4.71557    13.82616    37.18052     4.71557
    10.30000    13.95199    52.81479     4.71550    13.95199    37.18521     4.71550
    10.40000    14.07795    52.81006     4.71544    14.07795    37.18994     4.71544
    10.50000    14.20404    52.80527     4.71537    14.20404    37.19473     4.71537
    10.60000    14.37135    52.79901     4.71528    14.37135    37.20099     4.71528
    10.70000    14.49775    52.79412     4.71521    14.49775    37.20588     4.71521
    10.80000    14.62427    52.78917     4.71514    14.62427    37.21083     4.71514
    10.90000    14.79218    52.78270     4.71504    14.79218    37.21730     4.71504
    11.00000    14.91902    52.77765     4.71497    14.91902    37.22235     4.71497
    11.10000    15.04600    52.77255     4.71490    15.04600    37.22745     4.71490
    11.20000    15.21451    52.76586     4.71480    15.21451    37.23414     4.71480
    11.30000    15.34181    52.76064     4.71473    15.34181    37.23936     4.71473
    11.40000    15.46926    52.75538     4.71465    15.46926    37.24462     4.71465
    11.50000    15.63839    52.74848     4.71456    15.63839    37.25152     4.71456
    11.60000    15.76616    52.74310     4.71448    15.76616    37.25690     4.71448
    11.70000    15.89408    52.73768     4.71440    15.89408    37.26232     4.71440
    11.80000    16.02215    52.73220     4.71433    16.02215    37.26780     4.71433
    11.90000    16.19211    52.72501     4.71422    16.19211    37.27499     4.71422
    12.00000    16.32052    52.71942     4.71414    16.32052    37.28058     4.71414
    12.10000    16.44908    52.71378     4.71407    16.44908    37.28622     4.71407
    12.20000    16.61970    52.70637     4.71396    16.61970    37.29363     4.71396
    12.30000    16.74861    52.70061     4.71388    16.74861    37.29939     4.71388
    12.40000    16.87768    52.69480     4.71380    16.87768    37.30520     4.71380
    12.50000    17.00689    52.68894     4.71372    17.00689    37.31106     4.71372
    12.60000    17.17840    52.68124     4.71361    17.17840    37.31876     4.71361
    12.70000    17.30798    52.67526     4.71353    17.30798    37.32474     4.71353
    12.80000    17.43772    52.66923     4.71344    17.43772    37.33077     4.71344
    12.90000    17.60992    52.66130     4.71333    17.60992    37.33870     4.71333
    13.00000    17.74003    52.65515     4.71324    17.74003    37.34485     4.71324
    13.10000    17.87030    52.64895     4.71316    17.87030    37.35105     4.71316
    13.20000    18.00073    52.64269     4.71307    18.00073    37.35731     4.71307
    13.30000    18.17387    52.63446     4.71296    18.17387    37.36554     4.71296
    13.40000    18.30468    52.62809     4.71287    18.30468    37.37191     4.71287
    13.50000    18.43566    52.62166     4.71278    18.43566    37.37834     4.71278
    13.60000    18.56681    52.61517     4.71269    18.56681    37.38483     4.71269
    13.70000    18.74090    52.60664     4.71257    18.74090    37.39336     4.71257
    13.80000    18.87244    52.60003     4.71248    18.87244    37.39997     4.71248
    13.90000    19.00415    52.59337     4.71239    19.00415    37.40663     4.71239
    14.00000    19.13604    52.58666     4.71230    19.13604    37.41334     4.71230
    14.10000    19.31112    52.57781     4.71218    19.31112    37.42219     4.71218
    14.20000    19.44340    52.57097     4.71208    19.44340    37.42903     4.71208
    14.30000    19.57587    52.56408     4.71199    19.57587    37.43592     4.71199
    14.40000    19.70851    52.55713     4.71189    19.70851    37.44287     4.71189
    14.50000    19.88460    52.54797     4.71177    19.88460    37.45203     4.71177
    14.60000    20.01766    52.54089     4.71167    20.01766    37.45911     4.71167
    14.70000    20.15089    52.53376     4.71157    20.15089    37.46624     4.71157
    14.80000    20.28431    52.52657     4.71148    20.28431    37.47343     4.71148
    14.90000    20.46144    52.51710     4.71135    20.46144    37.48290     4.71135
    15.00000    20.59529    52.50978     4.71125    20.59529    37.49022     4.71125
    15.10000    20.72932    52.50241     4.71115    20.72932    37.49759     4.71115
    15.20000    20.86353    52.49497     4.71105    20.86353    37.50503     4.71105
    15.30000    20.99794    52.48749     4.71095    20.99794    37.51251     4.71095
    15.40000    21.17639    52.47762     4.71081    21.17639    37.52238     4.71081
    15.50000    21.31123    52.47000     4.71071    21.31123    37.53000     4.71071
    15.60000    21.44626    52.46232     4.71061    21.44626    37.53768     4.71061
    15.70000    21.58149    52.45459     4.71051    21.58149    37.54541     4.71051
    15.80000    21.71691    52.44680     4.71040    21.71691    37.55320     4.71040
    15.90000    21.89672    52.43653     4.71026    21.89672    37.56347     4.71026
    16.00000    22.03259    52.42860     4.71016    22.03259    37.57140     4.71016
    16.10000    22.16866    52.42062     4.71005    22.16866    37.57938     4.71005
    16.20000    22.30493    52.41257     4.70994    22.30493    37.58743     4.70994
    16.30000    22.44140    52.40447     4.70984    22.44140    37.59553     4.70984
    16.40000    22.62261    52.39379     4.70969    22.62261    37.60621     4.70969
    16.50000    22.75954    52.38556     4.70958    22.75954    37.61444     4.70958
    16.60000    22.89668    52.37726     4.70947    22.89668    37.62274     4.70947
    16.70000    23.03402    52.36891     4.70936    23.03402    37.63109     4.70936
    16.80000    23.17156    52.36049     4.70925    23.17156    37.63951     4.70925
    16.90000    23.35422    52.34939     4.70910    23.35422    37.65061     4.70910
    17.00000    23.49224    52.34084     4.70899    23.49224    37.65916     4.70899
    17.10000    23.63047    52.33223     4.70888    23.63047    37.66777     4.70888
    17.20000    23.76892    52.32356     4.70876    23.76892    37.67644     4.70876
    17.30000    23.90757    52.31482     4.70865    23.90757    37.68518     4.70865
    17.40000    24.04644    52.30603     4.70853    24.04644    37.69397     4.70853
    17.50000    24.23086    52.29443     4.70838    24.23086    37.70557     4.70838
    17.60000    24.37022    52.28550     4.70826    24.37022    37.71450     4.70826
    17.70000    24.50980    52.27650     4.70815    24.50980    37.72350     4.70815
    17.80000    24.64959    52.26744     4.70803    24.64959    37.73256     4.70803
    17.90000    24.78960    52.25833     4.70791    24.78960    37.74167     4.70791
    18.00000    24.92983    52.24915     4.70779    24.92983    37.75085     4.70779
    18.10000    25.11608    52.23704     4.70763    25.11608    37.76296     4.70763
    18.20000    25.25682    52.22771     4.70751    25.25682    37.77229     4.70751
    18.30000    25.39779    52.21833     4.70739    25.39779    37.78167     4.70739
    18.40000    25.53898    52.20888     4.70727    25.53898    37.79112     4.70727
    18.50000    25.68039    52.19938     4.70714    25.68039    37.80062     4.70714
    18.60000    25.82203    52.18981     4.70702    25.82203    37.81019     4.70702
    18.70000    25.96389    52.18017     4.70689    25.96389    37.81983     4.70689
    18.80000    26.10599    52.17048     4.70677    26.10599    37.82952     4.70677
    18.90000    26.29473    52.15768     4.70660    26.29473    37.84232     4.70660
    19.00000    26.43735    52.14784     4.70648    26.43735    37.85216     4.70648
    19.10000    26.58021    52.13793     4.70635    26.58021    37.86207     4.70635
    19.20000    26.72331    52.12796     4.70622    26.72331    37.87204     4.70622
    19.30000    26.86663    52.11793     4.70609    26.86663    37.88207     4.70609
    19.40000    27.01019    52.10784     4.70596    27.01019    37.89216     4.70596
    19.50000    27.15399    52.09768     4.70583    27.15399    37.90232     4.70583
    19.60000    27.29802    52.08746     4.70570    27.29802    37.91254     4.70570
    19.70000    27.44229    52.07717     4.70557    27.44229    37.92283     4.70557
    19.80000    27.63394    52.06359     4.70540    27.63394    37.93641     4.70540
    19.90000    27.77877    52.05315     4.70526    27.77877    37.94685     4.70526
    20.00000    27.92384    52.04265     4.70513    27.92384    37.95735     4.70513
    20.10000    28.06916    52.03209     4.70499    28.06916    37.96791     4.70499
    20.20000    28.21472    52.02146     4.70486    28.21472    37.97854     4.70486
    20.30000    28.36052    52.01077     4.70472    28.36052    37.98923     4.70472
    20.40000    28.50657    52.00001     4.70459    28.50657    37.99999     4.70459
    20.50000    28.65287    51.98919     4.70445    28.65287    38.01081     4.70445
    20.60000    28.79941    51.97830     4.70431    28.79941    38.02170     4.70431
    20.70000    28.94621    51.96735     4.70417    28.94621    38.03265     4.70417
    20.80000    29.09326    51.95633     4.70403    29.09326    38.04367     4.70403
    20.90000    29.24055    51.94525     4.70389    29.24055    38.05475     4.70389
    21.00000    29.38810    51.93410     4.70375    29.38810    38.06590     4.70375
    21.10000    29.58415    51.91937     4.70357    29.58415    38.08063     4.70357
    21.20000    29.73229    51.90807     4.70342    29.73229    38.09193     4.70342
    21.30000    29.88070    51.89670     4.70328    29.88070    38.10330     4.70328
    21.40000    30.02936    51.88527     4.70314    30.02936    38.11473     4.70314
    21.50000    30.17828    51.87377     4.70299    30.17828    38.12623     4.70299
    21.60000    30.32746    51.86221     4.70285    30.32746    38.13779     4.70285
    21.70000    30.47690    51.85058     4.70270    30.47690    38.14942     4.70270
    21.80000    30.62660    51.83888     4.70255    30.62660    38.16112     4.70255
    21.90000    30.77657    51.82712     4.70240    30.77657    38.17288     4.70240
    22.00000    30.92681    51.81529     4.70226    30.92681    38.18471     4.70226
    22.10000    31.07731    51.80340     4.70211    31.07731    38.19660     4.70211
    22.20000    31.22807    51.79143     4.70196    31.22807    38.20857     4.70196
    22.30000    31.37911    51.77941     4.70181    31.37911    38.22059     4.70181
    22.40000    31.53042    51.76731     4.70166    31.53042    38.23269     4.70166
    22.50000    31.68199    51.75515     4.70150    31.68199    38.24485     4.70150
    22.60000    31.83384    51.74293     4.70135    31.83384    38.25707     4.70135
    22.70000    31.98597    51.73064     4.70120    31.98597    38.26936     4.70120
    22.80000    32.13836    51.71828     4.70104    32.13836    38.28172     4.70104
    22.90000    32.29104    51.70585     4.70089    32.29104    38.29415     4.70089
    23.00000    32.44399    51.69336     4.70073    32.44399    38.30664     4.70073
    23.10000    32.59722    51.68080     4.70058    32.59722    38.31920     4.70058
    23.20000    32.75072    51.66818     4.70042    32.75072    38.33182     4.70042
    23.30000    32.90451    51.65548     4.70026    32.90451    38.34452     4.70026
    23.40000    33.05858    51.64272     4.70010    33.05858    38.35728     4.70010
    23.50000    33.21294    51.62990     4.69994    33.21294    38.37010     4.69994
    23.60000    33.36758    51.61701     4.69978    33.36758    38.38299     4.69978
    23.70000    33.52250    51.60405     4.69962    33.52250    38.39595     4.69962
    23.80000    33.67771    51.59102     4.69946    33.67771    38.40898     4.69946
    23.90000    33.83321    51.57793     4.69930    33.83321    38.42207     4.69930
    24.00000    33.93814    51.56892     4.69918    33.93814    38.43108     4.69918
    24.10000    34.09413    51.55572     4.69902    34.09413    38.44428     4.69902
    24.20000    34.25040    51.54245     4.69886    34.25040    38.45755     4.69886
    24.30000    34.40697    51.52911     4.69869    34.40697    38.47089     4.69869
    24.40000    34.56383    51.51571     4.69853    34.56383    38.48429     4.69853
    24.50000    34.72099    51.50224     4.69836    34.72099    38.49776     4.69836
    24.60000    34.87845    51.48871     4.69819    34.87845    38.51129     4.69819
    24.70000    35.03620    51.47510     4.69802    35.03620    38.52490     4.69802
    24.80000    35.19426    51.46144     4.69785    35.19426    38.53856     4.69785
    24.90000    35.35261    51.44770     4.69768    35.35261    38.55230     4.69768
    25.00000    35.51127    51.43390     4.69751    35.51127    38.56610     4.69751
    25.10000    35.67023    51.42004     4.69734    35.67023    38.57996     4.69734
    25.20000    35.82949    51.40610     4.69717    35.82949    38.59390     4.69717
    25.30000    35.93695    51.39653     4.69705    35.93695    38.60347     4.69705
    25.40000    36.09672    51.38249     4.69688    36.09672    38.61751     4.69688
    25.50000    36.25681    51.36838     4.69670    36.25681    38.63162     4.69670
    25.60000    36.41721    51.35420     4.69653    36.41721    38.64580     4.69653
    25.70000    36.57791    51.33997     4.69635    36.57791    38.66003     4.69635
    25.80000    36.73893    51.32566     4.69617    36.73893    38.67434     4.69617
    25.90000    36.90027    51.31129     4.69599    36.90027    38.68871     4.69599
    26.00000    37.06192    51.29686     4.69582    37.06192    38.70314     4.69582
    26.10000    37.17097    51.28694     4.69569    37.17097    38.71306     4.69569
    26.20000    37.33315    51.27240     4.69551    37.33315    38.72760     4.69551
    26.30000    37.49565    51.25779     4.69533    37.49565    38.74221     4.69533
    26.40000    37.65847    51.24312     4.69515    37.65847    38.75688     4.69515
    26.50000    37.82161    51.22838     4.69497    37.82161    38.77162     4.69497
    26.60000    37.98508    51.21358     4.69478    37.98508    38.78642     4.69478
    26.70000    38.14887    51.19871     4.69460    38.14887    38.80129     4.69460
    26.80000    38.25936    51.18851     4.69447    38.25936    38.81149     4.69447
    26.90000    38.42370    51.17354     4.69429    38.42370    38.82646     4.69429
    27.00000    38.58837    51.15850     4.69410    38.58837    38.84150     4.69410
    27.10000    38.75337    51.14340     4.69391    38.75337    38.85660     4.69391
    27.20000    38.91870    51.12824     4.69373    38.91870    38.87176     4.69373
    27.30000    39.03022    51.11784     4.69359    39.03022    38.88216     4.69359
    27.40000    39.19611    51.10257     4.69341    39.19611    38.89743     4.69341
    27.50000    39.36233    51.08724     4.69321    39.36233    38.91276     4.69321
    27.60000    39.52890    51.07185     4.69302    39.52890    38.92815     4.69302
    27.70000    39.69581    51.05639     4.69283    39.69581    38.94361     4.69283
    27.80000    39.80838    51.04580     4.69270    39.80838    38.95420     4.69270
    27.90000    39.97585    51.03024     4.69250    39.97585    38.96976     4.69250
    28.00000    40.14367    51.01462     4.69231    40.14367    38.98538     4.69231
    28.10000    40.31184    50.99894     4.69212    40.31184    39.00106     4.69212
    28.20000    40.48035    50.98320     4.69192    40.48035    39.01680     4.69192
    28.30000    40.59400    50.97241     4.69178    40.59400    39.02759     4.69178
    28.40000    40.76310    50.95656     4.69158    40.76310    39.04344     4.69158
    28.50000    40.93255    50.94066     4.69139    40.93255    39.05934     4.69139
    28.60000    41.10235    50.92470     4.69119    41.10235    39.07530     4.69119
    28.70000    41.21686    50.91376     4.69105    41.21686    39.08624     4.69105
    28.80000    41.38726    50.89770     4.69085    41.38726    39.10230     4.69085
    28.90000    41.55801    50.88158     4.69065    41.55801    39.11842     4.69065
    29.00000    41.72913    50.86539     4.69044    41.72913    39.13461     4.69044
    29.10000    41.84452    50.85432     4.69030    41.84452    39.14568     4.69030
    29.20000    42.01624    50.83804     4.69010    42.01624    39.16196     4.69010
    29.30000    42.18832    50.82170     4.68989    42.18832    39.17830     4.68989
    29.40000    42.36078    50.80531     4.68969    42.36078    39.19469     4.68969
    29.50000    42.47706    50.79409     4.68954    42.47706    39.20591     4.68954
    29.60000    42.65013    50.77760     4.68934    42.65013    39.22240     4.68934
    29.70000    42.82357    50.76105     4.68913    42.82357    39.23895     4.68913
    29.80000    42.99738    50.74445     4.68892    42.99738    39.25555     4.68892
    29.90000    43.11457    50.73309     4.68877    43.11457    39.26691     4.68877
    30.00000    43.28901    50.71640     4.68856    43.28901    39.28360     4.68856
    30.10000    43.46383    50.69965     4.68835    43.46383    39.30035     4.68835
    30.20000    43.58170    50.68820     4.68820    43.58170    39.31180     4.68820
    30.30000    43.75715    50.67136     4.68799    43.75715    39.32864     4.68799
    30.40000    43.93299    50.65446     4.68777    43.93299    39.34554     4.68777
    30.50000    44.05153    50.64291     4.68762    44.05153    39.35709     4.68762
    30.60000    44.22801    50.62593     4.68741    44.22801    39.37407     4.68741
    30.70000    44.40489    50.60890     4.68719    44.40489    39.39110     4.68719
    30.80000    44.52412    50.59726     4.68704    44.52412    39.40274     4.68704
    30.90000    44.70165    50.58014     4.68682    44.70165    39.41986     4.68682
    31.00000    44.87956    50.56296     4.68660    44.87956    39.43704     4.68660
    31.10000    44.99950    50.55123     4.68645    44.99950    39.44877     4.68645
    31.20000    45.17808    50.53398     4.68623    45.17808    39.46602     4.68623
    31.30000    45.35706    50.51667     4.68601    45.35706    39.48333     4.68601
    31.40000    45.47771    50.50485     4.68585    45.47771    39.49515     4.68585
    31.50000    45.65736    50.48746     4.68563    45.65736    39.51254     4.68563
    31.60000    45.83741    50.47003     4.68540    45.83741    39.52997     4.68540
    31.70000    45.95878    50.45812     4.68525    45.95878    39.54188     4.68525
    31.80000    46.13952    50.44061     4.68502    46.13952    39.55939     4.68502
    31.90000    46.32066    50.42305     4.68479    46.32066    39.57695     4.68479
    32.00000    46.44276    50.41106     4.68463    46.44276    39.58894     4.68463
    32.10000    46.62460    50.39342     4.68441    46.62460    39.60658     4.68441
    32.20000    46.80685    50.37574     4.68418    46.80685    39.62426     4.68418
    32.30000    46.92969    50.36367     4.68402    46.92969    39.63633     4.68402
    32.40000    47.11264    50.34592     4.68378    47.11264    39.65408     4.68378
    32.50000    47.23594    50.33380     4.68362    47.23594    39.66620     4.68362
    32.60000    47.41960    50.31597     4.68339    47.41960    39.68403     4.68339
    32.70000    47.60369    50.29811     4.68315    47.60369    39.70189     4.68315
    32.80000    47.72775    50.28592     4.68299    47.72775    39.71408     4.68299
    32.90000    47.91255    50.26798     4.68276    47.91255    39.73202     4.68276
    33.00000    48.09779    50.25000     4.68252    48.09779    39.75000     4.68252
    33.10000    48.22261    50.23774     4.68235    48.22261    39.76226     4.68235
    33.20000    48.40858    50.21970     4.68211    48.40858    39.78030     4.68211
    33.30000    48.53389    50.20740     4.68195    48.53389    39.79260     4.68195
    33.40000    48.72058    50.18929     4.68171    48.72058    39.81071     4.68171
    33.50000    48.90772    50.17115     4.68147    48.90772    39.82885     4.68147
    33.60000    49.03381    50.15878     4.68130    49.03381    39.84122     4.68130
    33.70000    49.22170    50.14058     4.68106    49.22170    39.85942     4.68106
    33.80000    49.34829    50.12818     4.68089    49.34829    39.87182     4.68089
    33.90000    49.53692    50.10992     4.68064    49.53692    39.89008     4.68064
    34.00000    49.66401    50.09748     4.68047    49.66401    39.90252     4.68047
    34.10000    49.85340    50.07917     4.68022    49.85340    39.92083     4.68022
    34.20000    50.04324    50.06082     4.67998    50.04324    39.93918     4.67998
    34.30000    50.17114    50.04832     4.67980    50.17114    39.95168     4.67980
    34.40000    50.36175    50.02993     4.67956    50.36175    39.97007     4.67956
    34.50000    50.49016    50.01740     4.67938    50.49016    39.98260     4.67938
    34.60000    50.68155    49.99895     4.67913    50.68155    40.00105     4.67913
    34.70000    50.81048    49.98639     4.67896    50.81048    40.01361     4.67896
    34.80000    51.00265    49.96790     4.67870    51.00265    40.03210     4.67870
    34.90000    51.19529    49.94939     4.67845    51.19529    40.05061     4.67845
    35.00000    51.32505    49.93678     4.67827    51.32505    40.06322     4.67827
    35.10000    51.51848    49.91822     4.67802    51.51848    40.08178     4.67802
    35.20000    51.64877    49.90559     4.67784    51.64877    40.09441     4.67784
    35.30000    51.84300    49.88700     4.67758    51.84300    40.11300     4.67758
    35.40000    51.97382    49.87434     4.67740    51.97382    40.12566     4.67740
    35.50000    52.16886    49.85571     4.67715    52.16886    40.14429     4.67715
    35.60000    52.30022    49.84303     4.67697    52.30022    40.15697     4.67697
    35.70000    52.49607    49.82437     4.67670    52.49607    40.17563     4.67670
    35.80000    52.62797    49.81167     4.67652    52.62797    40.18833     4.67652
    35.90000    52.82464    49.79297     4.67626    52.82464    40.20703     4.67626
    36.00000    53.02181    49.77426     4.67600    53.02181    40.22574     4.67600
    36.10000    53.15459    49.76154     4.67581    53.15459    40.23846     4.67581
    36.20000    53.35258    49.74280     4.67555    53.35258    40.25720     4.67555
    36.30000    53.48591    49.73006     4.67537    53.48591    40.26994     4.67537
    36.40000    53.68475    49.71130     4.67510    53.68475    40.28870     4.67510
    36.50000    53.81864    49.69855     4.67491    53.81864    40.30145     4.67491
    36.60000    54.01832    49.67977     4.67465    54.01832    40.32023     4.67465
    36.70000    54.15277    49.66701     4.67446    54.15277    40.33299     4.67446
    36.80000    54.35331    49.64822     4.67419    54.35331    40.35178     4.67419
    36.90000    54.48832    49.63545     4.67400    54.48832    40.36455     4.67400
    37.00000    54.68972    49.61665     4.67373    54.68972    40.38335     4.67373
    37.10000    54.82531    49.60387     4.67354    54.82531    40.39613     4.67354
    37.20000    55.02757    49.58506     4.67327    55.02757    40.41494     4.67327
    37.30000    55.16373    49.57228     4.67308    55.16373    40.42772     4.67308
    37.40000    55.36687    49.55346     4.67280    55.36687    40.44654     4.67280
    37.50000    55.50361    49.54069     4.67261    55.50361    40.45931     4.67261
    37.60000    55.70763    49.52187     4.67234    55.70763    40.47813     4.67234
    37.70000    55.91217    49.50305     4.67206    55.91217    40.49695     4.67206
    37.80000    56.04986    49.49028     4.67187    56.04986    40.50972     4.67187
    37.90000    56.25530    49.47146     4.67159    56.25530    40.52854     4.67159
    38.00000    56.39358    49.45870     4.67140    56.39358    40.54130     4.67140
    38.10000    56.59991    49.43989     4.67112    56.59991    40.56011     4.67112
    38.20000    56.73879    49.42713     4.67092    56.73879    40.57287     4.67092
    38.30000    56.94603    49.40834     4.67064    56.94603    40.59166     4.67064
    38.40000    57.08551    49.39560     4.67044    57.08551    40.60440     4.67044
    38.50000    57.29366    49.37682     4.67016    57.29366    40.62318     4.67016
    38.60000    57.43374    49.36409     4.66997    57.43374    40.63591     4.66997
    38.70000    57.64281    49.34534     4.66968    57.64281    40.65466     4.66968
    38.80000    57.78350    49.33262     4.66948    57.78350    40.66738     4.66948
    38.90000    57.99350    49.31389     4.66920    57.99350    40.68611     4.66920
    39.00000    58.13481    49.30120     4.66900    58.13481    40.69880     4.66900
    39.10000    58.34573    49.28250     4.66871    58.34573    40.71750     4.66871
    39.20000    58.48765    49.26983     4.66851    58.48765    40.73017     4.66851
    39.30000    58.69952    49.25116     4.66823    58.69952    40.74884     4.66823
    39.40000    58.91195    49.23252     4.66794    58.91195    40.76748     4.66794
    39.50000    59.05487    49.21989     4.66774    59.05487    40.78011     4.66774
    39.60000    59.26825    49.20129     4.66745    59.26825    40.79871     4.66745
    39.70000    59.41179    49.18869     4.66724    59.41179    40.81131     4.66724
    39.80000    59.62612    49.17013     4.66695    59.62612    40.82987     4.66695
    39.90000    59.77030    49.15757     4.66675    59.77030    40.84243     4.66675
    40.00000    59.98559    49.13906     4.66646    59.98559    40.86094     4.66646
