 # applied field (T), theta (degree), phi (degree), abs for RE 3-4
     0.00000   179.84196   315.00000     3.56429   179.84196   225.00000     3.56429
     0.10000   178.90945   184.59658     3.56694   178.68107   185.99085     3.56423
     0.20000   177.71260   181.58140     3.56947   177.48273   183.73001     3.56406
     0.30000   176.51291   180.63927     3.57186   176.28260   182.93088     3.56379
     0.40000   175.31174   180.17971     3.57409   175.08154   182.52411     3.56341
     0.50000   174.10922   179.90754     3.57617   173.87962   182.27887     3.56292
     0.60000   172.90531   179.72738     3.57806   172.67677   182.11572     3.56234
     0.70000   171.64507   179.59418     3.57984   171.41809   181.99548     3.56162
     0.80000   170.43805   179.49916     3.58133   170.21297   181.91067     3.56083
     0.90000   169.17437   179.42197     3.58266   168.95166   181.84291     3.55992
     1.00000   167.90880   179.36036     3.58374   167.68880   181.79008     3.55891
     1.10000   166.64126   179.30985     3.58457   166.42426   181.74802     3.55780
     1.20000   165.31642   179.26587     3.58514   165.10279   181.71264     3.55656
     1.30000   163.98929   179.22857     3.58540   163.77923   181.68386     3.55523
     1.40000   162.65981   179.19641     3.58535   162.45346   181.66018     3.55382
     1.50000   161.27235   179.16720     3.58495   161.06995   181.63975     3.55227
     1.60000   159.82653   179.14052     3.58414   159.62831   181.62213     3.55057
     1.70000   158.37776   179.11686     3.58294   158.18372   181.60747     3.54881
     1.80000   156.92597   179.09566     3.58132   156.73610   181.59520     3.54698
     1.90000   155.35901   179.07514     3.57912   155.17362   181.58412     3.54495
     2.00000   153.78838   179.05658     3.57644   153.60747   181.57483     3.54286
     2.10000   152.15768   179.03913     3.57316   151.98146   181.56674     3.54065
     2.20000   150.46636   179.02266     3.56924   150.29515   181.55968     3.53832
     2.30000   148.65720   179.00662     3.56449   148.49166   181.55329     3.53581
     2.40000   146.84268   178.99190     3.55918   146.68332   181.54786     3.53328
     2.50000   144.85163   178.97707     3.55279   144.69991   181.54271     3.53052
     2.60000   142.73930   178.96258     3.54545   142.59702   181.53795     3.52760
     2.70000   140.56162   178.94870     3.53739   140.43093   181.53354     3.52463
     2.80000   138.14466   178.93423     3.52802   138.02955   181.52900     3.52141
     2.90000   135.48522   178.91905     3.51744   135.39112   181.52418     3.51797
     3.00000   132.57998   178.90288     3.50589   132.51394   181.51884     3.51435
     3.10000   129.30864   178.88462     3.49338   129.28079   181.51247     3.51048
     3.20000   125.49012   178.86257     3.48008   125.51505   181.50420     3.50625
     3.30000   120.88209   178.83430     3.46687   120.97965   181.49265     3.50157
     3.40000   114.82592   178.79442     3.45560   115.02483   181.47431     3.49611
     3.50000   105.53526   178.73139     3.45320   105.87225   181.43845     3.48917
     3.60000    89.78323   178.64307     3.48151    90.21677   181.35693     3.48151
     3.70000    89.78322   178.64301     3.48150    90.21678   181.35699     3.48150
     3.80000    89.78321   178.64296     3.48149    90.21679   181.35704     3.48149
     3.90000    89.78319   178.64290     3.48149    90.21681   181.35710     3.48149
     4.00000    89.78318   178.64284     3.48148    90.21682   181.35716     3.48148
     4.10000    89.78317   178.64278     3.48147    90.21683   181.35722     3.48147
     4.20000    89.78315   178.64273     3.48146    90.21685   181.35727     3.48146
     4.30000    89.78314   178.64267     3.48145    90.21686   181.35733     3.48145
     4.40000    89.78313   178.64261     3.48144    90.21687   181.35739     3.48144
     4.50000    89.78311   178.64256     3.48143    90.21689   181.35744     3.48143
     4.60000    89.78310   178.64250     3.48142    90.21690   181.35750     3.48142
     4.70000    89.78309   178.64244     3.48141    90.21691   181.35756     3.48141
     4.80000    89.78307   178.64239     3.48140    90.21693   181.35761     3.48140
     4.90000    89.78306   178.64233     3.48139    90.21694   181.35767     3.48139
     5.00000    89.78305   178.64227     3.48138    90.21695   181.35773     3.48138
     5.10000    89.78303   178.64221     3.48137    90.21697   181.35779     3.48137
     5.20000    89.78302   178.64216     3.48136    90.21698   181.35784     3.48136
     5.30000    89.78301   178.64210     3.48135    90.21699   181.35790     3.48135
     5.40000    89.78299   178.64204     3.48134    90.21701   181.35796     3.48134
     5.50000    89.78298   178.64199     3.48133    90.21702   181.35801     3.48133
     5.60000    89.78297   178.64193     3.48132    90.21703   181.35807     3.48132
     5.70000    89.78295   178.64187     3.48131    90.21705   181.35813     3.48131
     5.80000    89.78294   178.64181     3.48130    90.21706   181.35819     3.48130
     5.90000    89.78293   178.64176     3.48129    90.21707   181.35824     3.48129
     6.00000    89.78291   178.64170     3.48128    90.21709   181.35830     3.48128
     6.10000    89.78290   178.64164     3.48127    90.21710   181.35836     3.48127
     6.20000    89.78289   178.64159     3.48126    90.21711   181.35841     3.48126
     6.30000    89.78287   178.64153     3.48125    90.21713   181.35847     3.48125
     6.40000    89.78286   178.64147     3.48124    90.21714   181.35853     3.48124
     6.50000    89.78285   178.64141     3.48123    90.21715   181.35859     3.48123
     6.60000    89.78283   178.64136     3.48122    90.21717   181.35864     3.48122
     6.70000    89.78282   178.64130     3.48121    90.21718   181.35870     3.48121
     6.80000    89.78281   178.64124     3.48120    90.21719   181.35876     3.48120
     6.90000    89.78279   178.64119     3.48119    90.21721   181.35881     3.48119
     7.00000    89.78278   178.64113     3.48118    90.21722   181.35887     3.48118
     7.10000    89.78277   178.64107     3.48117    90.21723   181.35893     3.48117
     7.20000    89.78275   178.64101     3.48116    90.21725   181.35899     3.48116
     7.30000    89.78274   178.64096     3.48115    90.21726   181.35904     3.48115
     7.40000    89.78273   178.64090     3.48114    90.21727   181.35910     3.48114
     7.50000    89.78271   178.64084     3.48113    90.21729   181.35916     3.48113
     7.60000    89.78270   178.64079     3.48112    90.21730   181.35921     3.48112
     7.70000    89.78269   178.64073     3.48111    90.21731   181.35927     3.48111
     7.80000    89.78267   178.64067     3.48110    90.21733   181.35933     3.48110
     7.90000    89.78266   178.64061     3.48109    90.21734   181.35939     3.48109
     8.00000    89.78265   178.64056     3.48108    90.21735   181.35944     3.48108
     8.10000    89.78263   178.64050     3.48107    90.21737   181.35950     3.48107
     8.20000    89.78262   178.64044     3.48106    90.21738   181.35956     3.48106
     8.30000    89.78261   178.64039     3.48105    90.21739   181.35961     3.48105
     8.40000    89.78259   178.64033     3.48104    90.21741   181.35967     3.48104
     8.50000    89.78258   178.64027     3.48103    90.21742   181.35973     3.48103
     8.60000    89.78257   178.64021     3.48102    90.21743   181.35979     3.48102
     8.70000    89.78255   178.64016     3.48101    90.21745   181.35984     3.48101
     8.80000    89.78254   178.64010     3.48100    90.21746   181.35990     3.48100
     8.90000    89.78253   178.64004     3.48099    90.21747   181.35996     3.48099
     9.00000    89.78251   178.63998     3.48097    90.21749   181.36002     3.48097
     9.10000    89.78250   178.63993     3.48096    90.21750   181.36007     3.48096
     9.20000    89.78249   178.63987     3.48095    90.21751   181.36013     3.48095
     9.30000    89.78247   178.63981     3.48094    90.21753   181.36019     3.48094
     9.40000    89.78246   178.63976     3.48093    90.21754   181.36024     3.48093
     9.50000    89.78245   178.63970     3.48092    90.21755   181.36030     3.48092
     9.60000    89.78243   178.63964     3.48091    90.21757   181.36036     3.48091
     9.70000    89.78242   178.63958     3.48090    90.21758   181.36042     3.48090
     9.80000    89.78241   178.63953     3.48089    90.21759   181.36047     3.48089
     9.90000    89.78239   178.63947     3.48088    90.21761   181.36053     3.48088
    10.00000    89.78238   178.63941     3.48087    90.21762   181.36059     3.48087
    10.10000    89.78237   178.63935     3.48086    90.21763   181.36065     3.48086
    10.20000    89.78235   178.63930     3.48085    90.21765   181.36070     3.48085
    10.30000    89.78234   178.63924     3.48084    90.21766   181.36076     3.48084
    10.40000    89.78233   178.63918     3.48083    90.21767   181.36082     3.48083
    10.50000    89.78231   178.63913     3.48081    90.21769   181.36087     3.48081
    10.60000    89.78230   178.63907     3.48080    90.21770   181.36093     3.48080
    10.70000    89.78229   178.63901     3.48079    90.21771   181.36099     3.48079
    10.80000    89.78227   178.63895     3.48078    90.21773   181.36105     3.48078
    10.90000    89.78226   178.63890     3.48077    90.21774   181.36110     3.48077
    11.00000    89.78225   178.63884     3.48076    90.21775   181.36116     3.48076
    11.10000    89.78223   178.63878     3.48075    90.21777   181.36122     3.48075
    11.20000    89.78222   178.63872     3.48074    90.21778   181.36128     3.48074
    11.30000    89.78221   178.63867     3.48073    90.21779   181.36133     3.48073
    11.40000    89.78219   178.63861     3.48072    90.21781   181.36139     3.48072
    11.50000    89.78218   178.63855     3.48071    90.21782   181.36145     3.48071
    11.60000    89.78216   178.63850     3.48069    90.21784   181.36150     3.48069
    11.70000    89.78215   178.63844     3.48068    90.21785   181.36156     3.48068
    11.80000    89.78214   178.63838     3.48067    90.21786   181.36162     3.48067
    11.90000    89.78212   178.63832     3.48066    90.21788   181.36168     3.48066
    12.00000    89.78211   178.63827     3.48065    90.21789   181.36173     3.48065
    12.10000    89.78210   178.63821     3.48064    90.21790   181.36179     3.48064
    12.20000    89.78208   178.63815     3.48063    90.21792   181.36185     3.48063
    12.30000    89.78207   178.63809     3.48062    90.21793   181.36191     3.48062
    12.40000    89.78206   178.63804     3.48061    90.21794   181.36196     3.48061
    12.50000    89.78204   178.63798     3.48059    90.21796   181.36202     3.48059
    12.60000    89.78203   178.63792     3.48058    90.21797   181.36208     3.48058
    12.70000    89.78202   178.63786     3.48057    90.21798   181.36214     3.48057
    12.80000    89.78200   178.63781     3.48056    90.21800   181.36219     3.48056
    12.90000    89.78199   178.63775     3.48055    90.21801   181.36225     3.48055
    13.00000    89.78198   178.63769     3.48054    90.21802   181.36231     3.48054
    13.10000    89.78196   178.63764     3.48053    90.21804   181.36236     3.48053
    13.20000    89.78195   178.63758     3.48051    90.21805   181.36242     3.48051
    13.30000    89.78194   178.63752     3.48050    90.21806   181.36248     3.48050
    13.40000    89.78192   178.63746     3.48049    90.21808   181.36254     3.48049
    13.50000    89.78191   178.63741     3.48048    90.21809   181.36259     3.48048
    13.60000    89.78190   178.63735     3.48047    90.21810   181.36265     3.48047
    13.70000    89.78188   178.63729     3.48046    90.21812   181.36271     3.48046
    13.80000    89.78187   178.63723     3.48045    90.21813   181.36277     3.48045
    13.90000    89.78186   178.63718     3.48043    90.21814   181.36282     3.48043
    14.00000    89.78184   178.63712     3.48042    90.21816   181.36288     3.48042
    14.10000    89.78183   178.63706     3.48041    90.21817   181.36294     3.48041
    14.20000    89.78182   178.63700     3.48040    90.21818   181.36300     3.48040
    14.30000    89.78180   178.63695     3.48039    90.21820   181.36305     3.48039
    14.40000    89.78179   178.63689     3.48038    90.21821   181.36311     3.48038
    14.50000    89.78178   178.63683     3.48037    90.21822   181.36317     3.48037
    14.60000    89.78176   178.63677     3.48035    90.21824   181.36323     3.48035
    14.70000    89.78175   178.63672     3.48034    90.21825   181.36328     3.48034
    14.80000    89.78174   178.63666     3.48033    90.21826   181.36334     3.48033
    14.90000    89.78172   178.63660     3.48032    90.21828   181.36340     3.48032
    15.00000    89.78171   178.63654     3.48031    90.21829   181.36346     3.48031
    15.10000    89.78170   178.63649     3.48030    90.21830   181.36351     3.48030
    15.20000    89.78168   178.63643     3.48028    90.21832   181.36357     3.48028
    15.30000    89.78167   178.63637     3.48027    90.21833   181.36363     3.48027
    15.40000    89.78166   178.63631     3.48026    90.21834   181.36369     3.48026
    15.50000    89.78164   178.63626     3.48025    90.21836   181.36374     3.48025
    15.60000    89.78163   178.63620     3.48024    90.21837   181.36380     3.48024
    15.70000    89.78162   178.63614     3.48022    90.21838   181.36386     3.48022
    15.80000    89.78160   178.63608     3.48021    90.21840   181.36392     3.48021
    15.90000    89.78159   178.63603     3.48020    90.21841   181.36397     3.48020
    16.00000    89.78158   178.63597     3.48019    90.21842   181.36403     3.48019
    16.10000    89.78156   178.63591     3.48018    90.21844   181.36409     3.48018
    16.20000    89.78155   178.63585     3.48016    90.21845   181.36415     3.48016
    16.30000    89.78154   178.63580     3.48015    90.21846   181.36420     3.48015
    16.40000    89.78152   178.63574     3.48014    90.21848   181.36426     3.48014
    16.50000    89.78151   178.63568     3.48013    90.21849   181.36432     3.48013
    16.60000    89.78150   178.63562     3.48012    90.21850   181.36438     3.48012
    16.70000    89.78148   178.63557     3.48010    90.21852   181.36443     3.48010
    16.80000    89.78147   178.63551     3.48009    90.21853   181.36449     3.48009
    16.90000    89.78146   178.63545     3.48008    90.21854   181.36455     3.48008
    17.00000    89.78144   178.63539     3.48007    90.21856   181.36461     3.48007
    17.10000    89.78143   178.63534     3.48006    90.21857   181.36466     3.48006
    17.20000    89.78142   178.63528     3.48004    90.21858   181.36472     3.48004
    17.30000    89.78140   178.63522     3.48003    90.21860   181.36478     3.48003
    17.40000    89.78139   178.63516     3.48002    90.21861   181.36484     3.48002
    17.50000    89.78138   178.63511     3.48001    90.21862   181.36489     3.48001
    17.60000    89.78136   178.63505     3.48000    90.21864   181.36495     3.48000
    17.70000    89.78135   178.63499     3.47998    90.21865   181.36501     3.47998
    17.80000    89.78134   178.63493     3.47997    90.21866   181.36507     3.47997
    17.90000    89.78132   178.63488     3.47996    90.21868   181.36512     3.47996
    18.00000    89.78131   178.63482     3.47995    90.21869   181.36518     3.47995
    18.10000    89.78130   178.63476     3.47993    90.21870   181.36524     3.47993
    18.20000    89.78128   178.63470     3.47992    90.21872   181.36530     3.47992
    18.30000    89.78127   178.63465     3.47991    90.21873   181.36535     3.47991
    18.40000    89.78126   178.63459     3.47990    90.21874   181.36541     3.47990
    18.50000    89.78124   178.63453     3.47988    90.21876   181.36547     3.47988
    18.60000    89.78123   178.63447     3.47987    90.21877   181.36553     3.47987
    18.70000    89.78122   178.63442     3.47986    90.21878   181.36558     3.47986
    18.80000    89.78120   178.63436     3.47985    90.21880   181.36564     3.47985
    18.90000    89.78119   178.63430     3.47983    90.21881   181.36570     3.47983
    19.00000    89.78118   178.63424     3.47982    90.21882   181.36576     3.47982
    19.10000    89.78116   178.63419     3.47981    90.21884   181.36581     3.47981
    19.20000    89.78115   178.63413     3.47980    90.21885   181.36587     3.47980
    19.30000    89.78114   178.63407     3.47978    90.21886   181.36593     3.47978
    19.40000    89.78112   178.63401     3.47977    90.21888   181.36599     3.47977
    19.50000    89.78111   178.63395     3.47976    90.21889   181.36605     3.47976
    19.60000    89.78110   178.63390     3.47975    90.21890   181.36610     3.47975
    19.70000    89.78108   178.63384     3.47973    90.21892   181.36616     3.47973
    19.80000    89.78107   178.63378     3.47972    90.21893   181.36622     3.47972
    19.90000    89.78106   178.63372     3.47971    90.21894   181.36628     3.47971
    20.00000    89.78104   178.63367     3.47970    90.21896   181.36633     3.47970
    20.10000    89.78103   178.63361     3.47968    90.21897   181.36639     3.47968
    20.20000    89.78102   178.63355     3.47967    90.21898   181.36645     3.47967
    20.30000    89.78100   178.63349     3.47966    90.21900   181.36651     3.47966
    20.40000    89.78099   178.63344     3.47964    90.21901   181.36656     3.47964
    20.50000    89.78098   178.63338     3.47963    90.21902   181.36662     3.47963
    20.60000    89.78096   178.63332     3.47962    90.21904   181.36668     3.47962
    20.70000    89.78095   178.63326     3.47961    90.21905   181.36674     3.47961
    20.80000    89.78094   178.63321     3.47959    90.21906   181.36679     3.47959
    20.90000    89.78092   178.63315     3.47958    90.21908   181.36685     3.47958
    21.00000    89.78091   178.63309     3.47957    90.21909   181.36691     3.47957
    21.10000    89.78089   178.63303     3.47955    90.21911   181.36697     3.47955
    21.20000    89.78088   178.63297     3.47954    90.21912   181.36703     3.47954
    21.30000    89.78087   178.63292     3.47953    90.21913   181.36708     3.47953
    21.40000    89.78085   178.63286     3.47951    90.21915   181.36714     3.47951
    21.50000    89.78084   178.63280     3.47950    90.21916   181.36720     3.47950
    21.60000    89.78083   178.63274     3.47949    90.21917   181.36726     3.47949
    21.70000    89.78081   178.63269     3.47948    90.21919   181.36731     3.47948
    21.80000    89.78080   178.63263     3.47946    90.21920   181.36737     3.47946
    21.90000    89.78079   178.63257     3.47945    90.21921   181.36743     3.47945
    22.00000    89.78077   178.63251     3.47944    90.21923   181.36749     3.47944
    22.10000    89.78076   178.63245     3.47942    90.21924   181.36755     3.47942
    22.20000    89.78075   178.63240     3.47941    90.21925   181.36760     3.47941
    22.30000    89.78073   178.63234     3.47940    90.21927   181.36766     3.47940
    22.40000    89.78072   178.63228     3.47938    90.21928   181.36772     3.47938
    22.50000    89.78071   178.63222     3.47937    90.21929   181.36778     3.47937
    22.60000    89.78069   178.63217     3.47936    90.21931   181.36783     3.47936
    22.70000    89.78068   178.63211     3.47934    90.21932   181.36789     3.47934
    22.80000    89.78067   178.63205     3.47933    90.21933   181.36795     3.47933
    22.90000    89.78065   178.63199     3.47932    90.21935   181.36801     3.47932
    23.00000    89.78064   178.63193     3.47930    90.21936   181.36807     3.47930
    23.10000    89.78063   178.63188     3.47929    90.21937   181.36812     3.47929
    23.20000    89.78061   178.63182     3.47928    90.21939   181.36818     3.47928
    23.30000    89.78060   178.63176     3.47926    90.21940   181.36824     3.47926
    23.40000    89.78059   178.63170     3.47925    90.21941   181.36830     3.47925
    23.50000    89.78057   178.63165     3.47924    90.21943   181.36835     3.47924
    23.60000    89.78056   178.63159     3.47922    90.21944   181.36841     3.47922
    23.70000    89.78055   178.63153     3.47921    90.21945   181.36847     3.47921
    23.80000    89.78053   178.63147     3.47920    90.21947   181.36853     3.47920
    23.90000    89.78052   178.63141     3.47918    90.21948   181.36859     3.47918
    24.00000    89.78051   178.63136     3.47917    90.21949   181.36864     3.47917
    24.10000    89.78049   178.63130     3.47916    90.21951   181.36870     3.47916
    24.20000    89.78048   178.63124     3.47914    90.21952   181.36876     3.47914
    24.30000    89.78047   178.63118     3.47913    90.21953   181.36882     3.47913
    24.40000    89.78045   178.63113     3.47912    90.21955   181.36887     3.47912
    24.50000    89.78044   178.63107     3.47910    90.21956   181.36893     3.47910
    24.60000    89.78043   178.63101     3.47909    90.21957   181.36899     3.47909
    24.70000    89.78041   178.63095     3.47907    90.21959   181.36905     3.47907
    24.80000    89.78040   178.63089     3.47906    90.21960   181.36911     3.47906
    24.90000    89.78039   178.63084     3.47905    90.21961   181.36916     3.47905
    25.00000    89.78037   178.63078     3.47903    90.21963   181.36922     3.47903
    25.10000    89.78036   178.63072     3.47902    90.21964   181.36928     3.47902
    25.20000    89.78035   178.63066     3.47901    90.21965   181.36934     3.47901
    25.30000    89.78033   178.63060     3.47899    90.21967   181.36940     3.47899
    25.40000    89.78032   178.63055     3.47898    90.21968   181.36945     3.47898
    25.50000    89.78031   178.63049     3.47896    90.21969   181.36951     3.47896
    25.60000    89.78029   178.63043     3.47895    90.21971   181.36957     3.47895
    25.70000    89.78028   178.63037     3.47894    90.21972   181.36963     3.47894
    25.80000    89.78027   178.63032     3.47892    90.21973   181.36968     3.47892
    25.90000    89.78025   178.63026     3.47891    90.21975   181.36974     3.47891
    26.00000    89.78024   178.63020     3.47889    90.21976   181.36980     3.47889
    26.10000    89.78023   178.63014     3.47888    90.21977   181.36986     3.47888
    26.20000    89.78021   178.63008     3.47887    90.21979   181.36992     3.47887
    26.30000    89.78020   178.63003     3.47885    90.21980   181.36997     3.47885
    26.40000    89.78019   178.62997     3.47884    90.21981   181.37003     3.47884
    26.50000    89.78017   178.62991     3.47882    90.21983   181.37009     3.47882
    26.60000    89.78016   178.62985     3.47881    90.21984   181.37015     3.47881
    26.70000    89.78015   178.62979     3.47880    90.21985   181.37021     3.47880
    26.80000    89.78013   178.62974     3.47878    90.21987   181.37026     3.47878
    26.90000    89.78012   178.62968     3.47877    90.21988   181.37032     3.47877
    27.00000    89.78011   178.62962     3.47875    90.21989   181.37038     3.47875
    27.10000    89.78009   178.62956     3.47874    90.21991   181.37044     3.47874
    27.20000    89.78008   178.62950     3.47873    90.21992   181.37050     3.47873
    27.30000    89.78007   178.62945     3.47871    90.21993   181.37055     3.47871
    27.40000    89.78005   178.62939     3.47870    90.21995   181.37061     3.47870
    27.50000    89.78004   178.62933     3.47868    90.21996   181.37067     3.47868
    27.60000    89.78003   178.62927     3.47867    90.21997   181.37073     3.47867
    27.70000    89.78001   178.62921     3.47865    90.21999   181.37079     3.47865
    27.80000    89.78000   178.62916     3.47864    90.22000   181.37084     3.47864
    27.90000    89.77999   178.62910     3.47863    90.22001   181.37090     3.47863
    28.00000    89.77997   178.62904     3.47861    90.22003   181.37096     3.47861
    28.10000    89.77996   178.62898     3.47860    90.22004   181.37102     3.47860
    28.20000    89.77995   178.62892     3.47858    90.22005   181.37108     3.47858
    28.30000    89.77993   178.62887     3.47857    90.22007   181.37113     3.47857
    28.40000    89.77992   178.62881     3.47855    90.22008   181.37119     3.47855
    28.50000    89.77990   178.62875     3.47854    90.22010   181.37125     3.47854
    28.60000    89.77989   178.62869     3.47853    90.22011   181.37131     3.47853
    28.70000    89.77988   178.62863     3.47851    90.22012   181.37137     3.47851
    28.80000    89.77986   178.62858     3.47850    90.22014   181.37142     3.47850
    28.90000    89.77985   178.62852     3.47848    90.22015   181.37148     3.47848
    29.00000    89.77984   178.62846     3.47847    90.22016   181.37154     3.47847
    29.10000    89.77982   178.62840     3.47845    90.22018   181.37160     3.47845
    29.20000    89.77981   178.62834     3.47844    90.22019   181.37166     3.47844
    29.30000    89.77980   178.62829     3.47842    90.22020   181.37171     3.47842
    29.40000    89.77978   178.62823     3.47841    90.22022   181.37177     3.47841
    29.50000    89.77977   178.62817     3.47839    90.22023   181.37183     3.47839
    29.60000    89.77976   178.62811     3.47838    90.22024   181.37189     3.47838
    29.70000    89.77974   178.62805     3.47836    90.22026   181.37195     3.47836
    29.80000    89.77973   178.62800     3.47835    90.22027   181.37200     3.47835
    29.90000    89.77972   178.62794     3.47834    90.22028   181.37206     3.47834
    30.00000    89.77970   178.62788     3.47832    90.22030   181.37212     3.47832
    30.10000    89.77969   178.62782     3.47831    90.22031   181.37218     3.47831
    30.20000    89.77968   178.62776     3.47829    90.22032   181.37224     3.47829
    30.30000    89.77966   178.62771     3.47828    90.22034   181.37229     3.47828
    30.40000    89.77965   178.62765     3.47826    90.22035   181.37235     3.47826
    30.50000    89.77964   178.62759     3.47825    90.22036   181.37241     3.47825
    30.60000    89.77962   178.62753     3.47823    90.22038   181.37247     3.47823
    30.70000    89.77961   178.62747     3.47822    90.22039   181.37253     3.47822
    30.80000    89.77960   178.62741     3.47820    90.22040   181.37259     3.47820
    30.90000    89.77958   178.62736     3.47819    90.22042   181.37264     3.47819
    31.00000    89.77957   178.62730     3.47817    90.22043   181.37270     3.47817
    31.10000    89.77956   178.62724     3.47816    90.22044   181.37276     3.47816
    31.20000    89.77954   178.62718     3.47814    90.22046   181.37282     3.47814
    31.30000    89.77953   178.62712     3.47813    90.22047   181.37288     3.47813
    31.40000    89.77952   178.62707     3.47811    90.22048   181.37293     3.47811
    31.50000    89.77950   178.62701     3.47810    90.22050   181.37299     3.47810
    31.60000    89.77949   178.62695     3.47808    90.22051   181.37305     3.47808
    31.70000    89.77948   178.62689     3.47807    90.22052   181.37311     3.47807
    31.80000    89.77946   178.62683     3.47805    90.22054   181.37317     3.47805
    31.90000    89.77945   178.62677     3.47804    90.22055   181.37323     3.47804
    32.00000    89.77944   178.62672     3.47802    90.22056   181.37328     3.47802
    32.10000    89.77942   178.62666     3.47801    90.22058   181.37334     3.47801
    32.20000    89.77941   178.62660     3.47799    90.22059   181.37340     3.47799
    32.30000    89.77940   178.62654     3.47798    90.22060   181.37346     3.47798
    32.40000    89.77938   178.62648     3.47796    90.22062   181.37352     3.47796
    32.50000    89.77937   178.62643     3.47795    90.22063   181.37357     3.47795
    32.60000    89.77936   178.62637     3.47793    90.22064   181.37363     3.47793
    32.70000    89.77934   178.62631     3.47791    90.22066   181.37369     3.47791
    32.80000    89.77933   178.62625     3.47790    90.22067   181.37375     3.47790
    32.90000    89.77932   178.62619     3.47788    90.22068   181.37381     3.47788
    33.00000    89.77930   178.62613     3.47787    90.22070   181.37387     3.47787
    33.10000    89.77929   178.62608     3.47785    90.22071   181.37392     3.47785
    33.20000    89.77928   178.62602     3.47784    90.22072   181.37398     3.47784
    33.30000    89.77926   178.62596     3.47782    90.22074   181.37404     3.47782
    33.40000    89.77925   178.62590     3.47781    90.22075   181.37410     3.47781
    33.50000    89.77924   178.62584     3.47779    90.22076   181.37416     3.47779
    33.60000    89.77922   178.62578     3.47778    90.22078   181.37422     3.47778
    33.70000    89.77921   178.62573     3.47776    90.22079   181.37427     3.47776
    33.80000    89.77920   178.62567     3.47775    90.22080   181.37433     3.47775
    33.90000    89.77918   178.62561     3.47773    90.22082   181.37439     3.47773
    34.00000    89.77917   178.62555     3.47771    90.22083   181.37445     3.47771
    34.10000    89.77916   178.62549     3.47770    90.22084   181.37451     3.47770
    34.20000    89.77914   178.62544     3.47768    90.22086   181.37456     3.47768
    34.30000    89.77913   178.62538     3.47767    90.22087   181.37462     3.47767
    34.40000    89.77912   178.62532     3.47765    90.22088   181.37468     3.47765
    34.50000    89.77910   178.62526     3.47764    90.22090   181.37474     3.47764
    34.60000    89.77909   178.62520     3.47762    90.22091   181.37480     3.47762
    34.70000    89.77907   178.62514     3.47760    90.22093   181.37486     3.47760
    34.80000    89.77906   178.62509     3.47759    90.22094   181.37491     3.47759
    34.90000    89.77905   178.62503     3.47757    90.22095   181.37497     3.47757
    35.00000    89.77903   178.62497     3.47756    90.22097   181.37503     3.47756
    35.10000    89.77902   178.62491     3.47754    90.22098   181.37509     3.47754
    35.20000    89.77901   178.62485     3.47753    90.22099   181.37515     3.47753
    35.30000    89.77899   178.62479     3.47751    90.22101   181.37521     3.47751
    35.40000    89.77898   178.62474     3.47749    90.22102   181.37526     3.47749
    35.50000    89.77897   178.62468     3.47748    90.22103   181.37532     3.47748
    35.60000    89.77895   178.62462     3.47746    90.22105   181.37538     3.47746
    35.70000    89.77894   178.62456     3.47745    90.22106   181.37544     3.47745
    35.80000    89.77893   178.62450     3.47743    90.22107   181.37550     3.47743
    35.90000    89.77891   178.62444     3.47741    90.22109   181.37556     3.47741
    36.00000    89.77890   178.62439     3.47740    90.22110   181.37561     3.47740
    36.10000    89.77889   178.62433     3.47738    90.22111   181.37567     3.47738
    36.20000    89.77887   178.62427     3.47737    90.22113   181.37573     3.47737
    36.30000    89.77886   178.62421     3.47735    90.22114   181.37579     3.47735
    36.40000    89.77885   178.62415     3.47733    90.22115   181.37585     3.47733
    36.50000    89.77883   178.62409     3.47732    90.22117   181.37591     3.47732
    36.60000    89.77882   178.62403     3.47730    90.22118   181.37597     3.47730
    36.70000    89.77881   178.62398     3.47729    90.22119   181.37602     3.47729
    36.80000    89.77879   178.62392     3.47727    90.22121   181.37608     3.47727
    36.90000    89.77878   178.62386     3.47725    90.22122   181.37614     3.47725
    37.00000    89.77877   178.62380     3.47724    90.22123   181.37620     3.47724
    37.10000    89.77875   178.62374     3.47722    90.22125   181.37626     3.47722
    37.20000    89.77874   178.62368     3.47721    90.22126   181.37632     3.47721
    37.30000    89.77873   178.62363     3.47719    90.22127   181.37637     3.47719
    37.40000    89.77871   178.62357     3.47717    90.22129   181.37643     3.47717
    37.50000    89.77870   178.62351     3.47716    90.22130   181.37649     3.47716
    37.60000    89.77869   178.62345     3.47714    90.22131   181.37655     3.47714
    37.70000    89.77867   178.62339     3.47712    90.22133   181.37661     3.47712
    37.80000    89.77866   178.62333     3.47711    90.22134   181.37667     3.47711
    37.90000    89.77865   178.62328     3.47709    90.22135   181.37672     3.47709
    38.00000    89.77863   178.62322     3.47708    90.22137   181.37678     3.47708
    38.10000    89.77862   178.62316     3.47706    90.22138   181.37684     3.47706
    38.20000    89.77861   178.62310     3.47704    90.22139   181.37690     3.47704
    38.30000    89.77859   178.62304     3.47703    90.22141   181.37696     3.47703
    38.40000    89.77858   178.62298     3.47701    90.22142   181.37702     3.47701
    38.50000    89.77857   178.62292     3.47699    90.22143   181.37708     3.47699
    38.60000    89.77855   178.62287     3.47698    90.22145   181.37713     3.47698
    38.70000    89.77854   178.62281     3.47696    90.22146   181.37719     3.47696
    38.80000    89.77853   178.62275     3.47694    90.22147   181.37725     3.47694
    38.90000    89.77851   178.62269     3.47693    90.22149   181.37731     3.47693
    39.00000    89.77850   178.62263     3.47691    90.22150   181.37737     3.47691
    39.10000    89.77849   178.62257     3.47689    90.22151   181.37743     3.47689
    39.20000    89.77847   178.62251     3.47688    90.22153   181.37749     3.47688
    39.30000    89.77846   178.62246     3.47686    90.22154   181.37754     3.47686
    39.40000    89.77844   178.62240     3.47684    90.22156   181.37760     3.47684
    39.50000    89.77843   178.62234     3.47683    90.22157   181.37766     3.47683
    39.60000    89.77842   178.62228     3.47681    90.22158   181.37772     3.47681
    39.70000    89.77840   178.62222     3.47679    90.22160   181.37778     3.47679
    39.80000    89.77839   178.62216     3.47678    90.22161   181.37784     3.47678
    39.90000    89.77838   178.62210     3.47676    90.22162   181.37790     3.47676
    40.00000    89.77836   178.62205     3.47674    90.22164   181.37795     3.47674
