 # applied field (T), theta (degree), phi (degree), abs for RE 3-4
     0.00000   178.74259   315.00000     3.65652   178.74259   225.00000     3.65652
     0.10000   179.12554   265.58816     3.65222   177.94282   206.18129     3.65746
     0.20000   178.70579   221.36935     3.64807   177.09947   198.59696     3.65825
     0.30000   177.89661   203.46800     3.64358   176.17737   194.28496     3.65899
     0.40000   176.99733   195.84212     3.63900   175.24274   191.65755     3.65963
     0.50000   176.06838   191.76263     3.63432   174.30196   189.89480     3.66017
     0.60000   175.12586   189.24469     3.62954   173.35774   188.63171     3.66060
     0.70000   174.17557   187.54049     3.62466   172.41142   187.68255     3.66093
     0.80000   173.22005   186.31145     3.61969   171.46365   186.94319     3.66115
     0.90000   172.26051   185.38319     3.61462   170.51482   186.35086     3.66128
     1.00000   171.29761   184.65707     3.60947   169.56510   185.86550     3.66130
     1.10000   170.33169   184.07321     3.60422   168.61459   185.46037     3.66123
     1.20000   169.30900   183.56905     3.59859   167.61040   185.09936     3.66104
     1.30000   168.28324   183.15070     3.59287   166.60533   184.79170     3.66075
     1.40000   167.30869   182.81485     3.58738   165.65236   184.53933     3.66037
     1.50000   166.27700   182.51025     3.58149   164.64545   184.30619     3.65986
     1.60000   165.18761   182.23357     3.57522   163.58436   184.09092     3.65923
     1.70000   164.14947   182.00423     3.56920   162.57520   183.91004     3.65851
     1.80000   163.05314   181.79151     3.56280   161.51156   183.74026     3.65766
     1.90000   161.95311   181.60299     3.55634   160.44645   183.58828     3.65670
     2.00000   160.84925   181.43458     3.54984   159.37977   183.45135     3.65564
     2.10000   159.68595   181.27587     3.54299   158.25791   183.32134     3.65441
     2.20000   158.51818   181.13280     3.53612   157.13410   183.20342     3.65309
     2.30000   157.34583   181.00298     3.52925   156.00820   183.09590     3.65166
     2.40000   156.11257   180.87912     3.52207   154.82632   182.99291     3.65005
     2.50000   154.81757   180.76101     3.51462   153.58798   182.89437     3.64827
     2.60000   153.57334   180.65737     3.50756   152.40082   182.80775     3.64646
     2.70000   152.20965   180.55331     3.49996   151.10256   182.72065     3.64439
     2.80000   150.83926   180.45739     3.49250   149.80091   182.64033     3.64222
     2.90000   149.40455   180.36498     3.48492   148.44127   182.56295     3.63985
     3.00000   147.90456   180.27594     3.47729   147.02308   182.48848     3.63729
     3.10000   146.39654   180.19318     3.46995   145.60054   182.41936     3.63464
     3.20000   144.76355   180.11021     3.46243   144.06355   182.35021     3.63169
     3.30000   143.12140   180.03283     3.45536   142.52131   182.28586     3.62865
     3.40000   141.35202   179.95538     3.44834   140.86294   182.22162     3.62531
     3.50000   139.45376   179.87825     3.44157   139.08712   182.15779     3.62166
     3.60000   137.48495   179.80393     3.43541   137.24832   182.09643     3.61783
     3.70000   135.32505   179.72821     3.42972   135.23362   182.03397     3.61358
     3.80000   133.03268   179.65367     3.42495   133.09711   181.97247     3.60905
     3.90000   130.54668   179.57875     3.42128   130.78057   181.91051     3.60412
     4.00000   127.80535   179.50238     3.41906   128.22459   181.84700     3.59870
     4.10000   124.74694   179.42395     3.41877   125.36836   181.78111     3.59270
     4.20000   121.24874   179.34184     3.42115   122.09180   181.71099     3.58594
     4.30000   117.12739   179.25401     3.42736   118.21337   181.63409     3.57816
     4.40000   112.01760   179.15632     3.43955   113.36983   181.54520     3.56889
     4.50000   104.88754   179.03650     3.46330   106.53246   181.42928     3.55683
     4.60000    89.04905   178.81480     3.53520    90.95095   181.18520     3.53520
     4.70000    89.04902   178.81475     3.53519    90.95098   181.18525     3.53519
     4.80000    89.04899   178.81471     3.53518    90.95101   181.18529     3.53518
     4.90000    89.04896   178.81466     3.53518    90.95104   181.18534     3.53518
     5.00000    89.04893   178.81462     3.53517    90.95107   181.18538     3.53517
     5.10000    89.04890   178.81458     3.53516    90.95110   181.18542     3.53516
     5.20000    89.04887   178.81453     3.53515    90.95113   181.18547     3.53515
     5.30000    89.04884   178.81449     3.53515    90.95116   181.18551     3.53515
     5.40000    89.04881   178.81445     3.53514    90.95119   181.18555     3.53514
     5.50000    89.04878   178.81440     3.53513    90.95122   181.18560     3.53513
     5.60000    89.04875   178.81436     3.53512    90.95125   181.18564     3.53512
     5.70000    89.04872   178.81432     3.53512    90.95128   181.18568     3.53512
     5.80000    89.04869   178.81427     3.53511    90.95131   181.18573     3.53511
     5.90000    89.04866   178.81423     3.53510    90.95134   181.18577     3.53510
     6.00000    89.04862   178.81419     3.53509    90.95138   181.18581     3.53509
     6.10000    89.04859   178.81414     3.53509    90.95141   181.18586     3.53509
     6.20000    89.04856   178.81410     3.53508    90.95144   181.18590     3.53508
     6.30000    89.04853   178.81406     3.53507    90.95147   181.18594     3.53507
     6.40000    89.04850   178.81401     3.53506    90.95150   181.18599     3.53506
     6.50000    89.04847   178.81397     3.53505    90.95153   181.18603     3.53505
     6.60000    89.04844   178.81392     3.53505    90.95156   181.18608     3.53505
     6.70000    89.04841   178.81388     3.53504    90.95159   181.18612     3.53504
     6.80000    89.04838   178.81384     3.53503    90.95162   181.18616     3.53503
     6.90000    89.04835   178.81379     3.53502    90.95165   181.18621     3.53502
     7.00000    89.04832   178.81375     3.53502    90.95168   181.18625     3.53502
     7.10000    89.04829   178.81371     3.53501    90.95171   181.18629     3.53501
     7.20000    89.04826   178.81366     3.53500    90.95174   181.18634     3.53500
     7.30000    89.04823   178.81362     3.53499    90.95177   181.18638     3.53499
     7.40000    89.04820   178.81358     3.53498    90.95180   181.18642     3.53498
     7.50000    89.04817   178.81353     3.53498    90.95183   181.18647     3.53498
     7.60000    89.04814   178.81349     3.53497    90.95186   181.18651     3.53497
     7.70000    89.04811   178.81345     3.53496    90.95189   181.18655     3.53496
     7.80000    89.04808   178.81340     3.53495    90.95192   181.18660     3.53495
     7.90000    89.04805   178.81336     3.53494    90.95195   181.18664     3.53494
     8.00000    89.04802   178.81331     3.53494    90.95198   181.18669     3.53494
     8.10000    89.04799   178.81327     3.53493    90.95201   181.18673     3.53493
     8.20000    89.04796   178.81323     3.53492    90.95204   181.18677     3.53492
     8.30000    89.04793   178.81318     3.53491    90.95207   181.18682     3.53491
     8.40000    89.04790   178.81314     3.53490    90.95210   181.18686     3.53490
     8.50000    89.04787   178.81310     3.53490    90.95213   181.18690     3.53490
     8.60000    89.04784   178.81305     3.53489    90.95216   181.18695     3.53489
     8.70000    89.04781   178.81301     3.53488    90.95219   181.18699     3.53488
     8.80000    89.04778   178.81297     3.53487    90.95222   181.18703     3.53487
     8.90000    89.04775   178.81292     3.53486    90.95225   181.18708     3.53486
     9.00000    89.04771   178.81288     3.53485    90.95229   181.18712     3.53485
     9.10000    89.04768   178.81283     3.53485    90.95232   181.18717     3.53485
     9.20000    89.04765   178.81279     3.53484    90.95235   181.18721     3.53484
     9.30000    89.04762   178.81275     3.53483    90.95238   181.18725     3.53483
     9.40000    89.04759   178.81270     3.53482    90.95241   181.18730     3.53482
     9.50000    89.04756   178.81266     3.53481    90.95244   181.18734     3.53481
     9.60000    89.04753   178.81262     3.53480    90.95247   181.18738     3.53480
     9.70000    89.04750   178.81257     3.53480    90.95250   181.18743     3.53480
     9.80000    89.04747   178.81253     3.53479    90.95253   181.18747     3.53479
     9.90000    89.04744   178.81249     3.53478    90.95256   181.18751     3.53478
    10.00000    89.04741   178.81244     3.53477    90.95259   181.18756     3.53477
    10.10000    89.04738   178.81240     3.53476    90.95262   181.18760     3.53476
    10.20000    89.04735   178.81235     3.53475    90.95265   181.18765     3.53475
    10.30000    89.04732   178.81231     3.53475    90.95268   181.18769     3.53475
    10.40000    89.04729   178.81227     3.53474    90.95271   181.18773     3.53474
    10.50000    89.04726   178.81222     3.53473    90.95274   181.18778     3.53473
    10.60000    89.04723   178.81218     3.53472    90.95277   181.18782     3.53472
    10.70000    89.04720   178.81214     3.53471    90.95280   181.18786     3.53471
    10.80000    89.04717   178.81209     3.53470    90.95283   181.18791     3.53470
    10.90000    89.04714   178.81205     3.53469    90.95286   181.18795     3.53469
    11.00000    89.04711   178.81201     3.53469    90.95289   181.18799     3.53469
    11.10000    89.04708   178.81196     3.53468    90.95292   181.18804     3.53468
    11.20000    89.04705   178.81192     3.53467    90.95295   181.18808     3.53467
    11.30000    89.04702   178.81187     3.53466    90.95298   181.18813     3.53466
    11.40000    89.04698   178.81183     3.53465    90.95302   181.18817     3.53465
    11.50000    89.04695   178.81179     3.53464    90.95305   181.18821     3.53464
    11.60000    89.04692   178.81174     3.53463    90.95308   181.18826     3.53463
    11.70000    89.04689   178.81170     3.53462    90.95311   181.18830     3.53462
    11.80000    89.04686   178.81166     3.53462    90.95314   181.18834     3.53462
    11.90000    89.04683   178.81161     3.53461    90.95317   181.18839     3.53461
    12.00000    89.04680   178.81157     3.53460    90.95320   181.18843     3.53460
    12.10000    89.04677   178.81152     3.53459    90.95323   181.18848     3.53459
    12.20000    89.04674   178.81148     3.53458    90.95326   181.18852     3.53458
    12.30000    89.04671   178.81144     3.53457    90.95329   181.18856     3.53457
    12.40000    89.04668   178.81139     3.53456    90.95332   181.18861     3.53456
    12.50000    89.04665   178.81135     3.53455    90.95335   181.18865     3.53455
    12.60000    89.04662   178.81131     3.53454    90.95338   181.18869     3.53454
    12.70000    89.04659   178.81126     3.53454    90.95341   181.18874     3.53454
    12.80000    89.04656   178.81122     3.53453    90.95344   181.18878     3.53453
    12.90000    89.04653   178.81117     3.53452    90.95347   181.18883     3.53452
    13.00000    89.04650   178.81113     3.53451    90.95350   181.18887     3.53451
    13.10000    89.04647   178.81109     3.53450    90.95353   181.18891     3.53450
    13.20000    89.04644   178.81104     3.53449    90.95356   181.18896     3.53449
    13.30000    89.04641   178.81100     3.53448    90.95359   181.18900     3.53448
    13.40000    89.04638   178.81096     3.53447    90.95362   181.18904     3.53447
    13.50000    89.04634   178.81091     3.53446    90.95366   181.18909     3.53446
    13.60000    89.04631   178.81087     3.53445    90.95369   181.18913     3.53445
    13.70000    89.04628   178.81082     3.53444    90.95372   181.18918     3.53444
    13.80000    89.04625   178.81078     3.53444    90.95375   181.18922     3.53444
    13.90000    89.04622   178.81074     3.53443    90.95378   181.18926     3.53443
    14.00000    89.04619   178.81069     3.53442    90.95381   181.18931     3.53442
    14.10000    89.04616   178.81065     3.53441    90.95384   181.18935     3.53441
    14.20000    89.04613   178.81060     3.53440    90.95387   181.18940     3.53440
    14.30000    89.04610   178.81056     3.53439    90.95390   181.18944     3.53439
    14.40000    89.04607   178.81052     3.53438    90.95393   181.18948     3.53438
    14.50000    89.04604   178.81047     3.53437    90.95396   181.18953     3.53437
    14.60000    89.04601   178.81043     3.53436    90.95399   181.18957     3.53436
    14.70000    89.04598   178.81039     3.53435    90.95402   181.18961     3.53435
    14.80000    89.04595   178.81034     3.53434    90.95405   181.18966     3.53434
    14.90000    89.04592   178.81030     3.53433    90.95408   181.18970     3.53433
    15.00000    89.04589   178.81025     3.53432    90.95411   181.18975     3.53432
    15.10000    89.04586   178.81021     3.53431    90.95414   181.18979     3.53431
    15.20000    89.04583   178.81017     3.53430    90.95417   181.18983     3.53430
    15.30000    89.04579   178.81012     3.53430    90.95421   181.18988     3.53430
    15.40000    89.04576   178.81008     3.53429    90.95424   181.18992     3.53429
    15.50000    89.04573   178.81003     3.53428    90.95427   181.18997     3.53428
    15.60000    89.04570   178.80999     3.53427    90.95430   181.19001     3.53427
    15.70000    89.04567   178.80995     3.53426    90.95433   181.19005     3.53426
    15.80000    89.04564   178.80990     3.53425    90.95436   181.19010     3.53425
    15.90000    89.04561   178.80986     3.53424    90.95439   181.19014     3.53424
    16.00000    89.04558   178.80982     3.53423    90.95442   181.19018     3.53423
    16.10000    89.04555   178.80977     3.53422    90.95445   181.19023     3.53422
    16.20000    89.04552   178.80973     3.53421    90.95448   181.19027     3.53421
    16.30000    89.04549   178.80968     3.53420    90.95451   181.19032     3.53420
    16.40000    89.04546   178.80964     3.53419    90.95454   181.19036     3.53419
    16.50000    89.04543   178.80960     3.53418    90.95457   181.19040     3.53418
    16.60000    89.04540   178.80955     3.53417    90.95460   181.19045     3.53417
    16.70000    89.04537   178.80951     3.53416    90.95463   181.19049     3.53416
    16.80000    89.04534   178.80946     3.53415    90.95466   181.19054     3.53415
    16.90000    89.04530   178.80942     3.53414    90.95470   181.19058     3.53414
    17.00000    89.04527   178.80938     3.53413    90.95473   181.19062     3.53413
    17.10000    89.04524   178.80933     3.53412    90.95476   181.19067     3.53412
    17.20000    89.04521   178.80929     3.53411    90.95479   181.19071     3.53411
    17.30000    89.04518   178.80924     3.53410    90.95482   181.19076     3.53410
    17.40000    89.04515   178.80920     3.53409    90.95485   181.19080     3.53409
    17.50000    89.04512   178.80916     3.53408    90.95488   181.19084     3.53408
    17.60000    89.04509   178.80911     3.53407    90.95491   181.19089     3.53407
    17.70000    89.04506   178.80907     3.53406    90.95494   181.19093     3.53406
    17.80000    89.04503   178.80903     3.53405    90.95497   181.19097     3.53405
    17.90000    89.04500   178.80898     3.53404    90.95500   181.19102     3.53404
    18.00000    89.04497   178.80894     3.53403    90.95503   181.19106     3.53403
    18.10000    89.04494   178.80889     3.53402    90.95506   181.19111     3.53402
    18.20000    89.04491   178.80885     3.53401    90.95509   181.19115     3.53401
    18.30000    89.04488   178.80881     3.53400    90.95512   181.19119     3.53400
    18.40000    89.04484   178.80876     3.53399    90.95516   181.19124     3.53399
    18.50000    89.04481   178.80872     3.53398    90.95519   181.19128     3.53398
    18.60000    89.04478   178.80867     3.53397    90.95522   181.19133     3.53397
    18.70000    89.04475   178.80863     3.53396    90.95525   181.19137     3.53396
    18.80000    89.04472   178.80859     3.53395    90.95528   181.19141     3.53395
    18.90000    89.04469   178.80854     3.53394    90.95531   181.19146     3.53394
    19.00000    89.04466   178.80850     3.53393    90.95534   181.19150     3.53393
    19.10000    89.04463   178.80845     3.53392    90.95537   181.19155     3.53392
    19.20000    89.04460   178.80841     3.53391    90.95540   181.19159     3.53391
    19.30000    89.04457   178.80837     3.53390    90.95543   181.19163     3.53390
    19.40000    89.04454   178.80832     3.53389    90.95546   181.19168     3.53389
    19.50000    89.04451   178.80828     3.53388    90.95549   181.19172     3.53388
    19.60000    89.04448   178.80823     3.53387    90.95552   181.19177     3.53387
    19.70000    89.04445   178.80819     3.53386    90.95555   181.19181     3.53386
    19.80000    89.04441   178.80815     3.53385    90.95559   181.19185     3.53385
    19.90000    89.04438   178.80810     3.53384    90.95562   181.19190     3.53384
    20.00000    89.04435   178.80806     3.53383    90.95565   181.19194     3.53383
    20.10000    89.04432   178.80801     3.53382    90.95568   181.19199     3.53382
    20.20000    89.04429   178.80797     3.53381    90.95571   181.19203     3.53381
    20.30000    89.04426   178.80793     3.53380    90.95574   181.19207     3.53380
    20.40000    89.04423   178.80788     3.53379    90.95577   181.19212     3.53379
    20.50000    89.04420   178.80784     3.53378    90.95580   181.19216     3.53378
    20.60000    89.04417   178.80779     3.53376    90.95583   181.19221     3.53376
    20.70000    89.04414   178.80775     3.53375    90.95586   181.19225     3.53375
    20.80000    89.04411   178.80770     3.53374    90.95589   181.19230     3.53374
    20.90000    89.04408   178.80766     3.53373    90.95592   181.19234     3.53373
    21.00000    89.04405   178.80762     3.53372    90.95595   181.19238     3.53372
    21.10000    89.04401   178.80757     3.53371    90.95599   181.19243     3.53371
    21.20000    89.04398   178.80753     3.53370    90.95602   181.19247     3.53370
    21.30000    89.04395   178.80748     3.53369    90.95605   181.19252     3.53369
    21.40000    89.04392   178.80744     3.53368    90.95608   181.19256     3.53368
    21.50000    89.04389   178.80740     3.53367    90.95611   181.19260     3.53367
    21.60000    89.04386   178.80735     3.53366    90.95614   181.19265     3.53366
    21.70000    89.04383   178.80731     3.53365    90.95617   181.19269     3.53365
    21.80000    89.04380   178.80726     3.53364    90.95620   181.19274     3.53364
    21.90000    89.04377   178.80722     3.53363    90.95623   181.19278     3.53363
    22.00000    89.04374   178.80718     3.53362    90.95626   181.19282     3.53362
    22.10000    89.04371   178.80713     3.53360    90.95629   181.19287     3.53360
    22.20000    89.04368   178.80709     3.53359    90.95632   181.19291     3.53359
    22.30000    89.04364   178.80704     3.53358    90.95636   181.19296     3.53358
    22.40000    89.04361   178.80700     3.53357    90.95639   181.19300     3.53357
    22.50000    89.04358   178.80696     3.53356    90.95642   181.19304     3.53356
    22.60000    89.04355   178.80691     3.53355    90.95645   181.19309     3.53355
    22.70000    89.04352   178.80687     3.53354    90.95648   181.19313     3.53354
    22.80000    89.04349   178.80682     3.53353    90.95651   181.19318     3.53353
    22.90000    89.04346   178.80678     3.53352    90.95654   181.19322     3.53352
    23.00000    89.04343   178.80673     3.53351    90.95657   181.19327     3.53351
    23.10000    89.04340   178.80669     3.53350    90.95660   181.19331     3.53350
    23.20000    89.04337   178.80665     3.53348    90.95663   181.19335     3.53348
    23.30000    89.04334   178.80660     3.53347    90.95666   181.19340     3.53347
    23.40000    89.04331   178.80656     3.53346    90.95669   181.19344     3.53346
    23.50000    89.04327   178.80651     3.53345    90.95673   181.19349     3.53345
    23.60000    89.04324   178.80647     3.53344    90.95676   181.19353     3.53344
    23.70000    89.04321   178.80643     3.53343    90.95679   181.19357     3.53343
    23.80000    89.04318   178.80638     3.53342    90.95682   181.19362     3.53342
    23.90000    89.04315   178.80634     3.53341    90.95685   181.19366     3.53341
    24.00000    89.04312   178.80629     3.53340    90.95688   181.19371     3.53340
    24.10000    89.04309   178.80625     3.53338    90.95691   181.19375     3.53338
    24.20000    89.04306   178.80620     3.53337    90.95694   181.19380     3.53337
    24.30000    89.04303   178.80616     3.53336    90.95697   181.19384     3.53336
    24.40000    89.04300   178.80612     3.53335    90.95700   181.19388     3.53335
    24.50000    89.04297   178.80607     3.53334    90.95703   181.19393     3.53334
    24.60000    89.04293   178.80603     3.53333    90.95707   181.19397     3.53333
    24.70000    89.04290   178.80598     3.53332    90.95710   181.19402     3.53332
    24.80000    89.04287   178.80594     3.53331    90.95713   181.19406     3.53331
    24.90000    89.04284   178.80590     3.53329    90.95716   181.19410     3.53329
    25.00000    89.04281   178.80585     3.53328    90.95719   181.19415     3.53328
    25.10000    89.04278   178.80581     3.53327    90.95722   181.19419     3.53327
    25.20000    89.04275   178.80576     3.53326    90.95725   181.19424     3.53326
    25.30000    89.04272   178.80572     3.53325    90.95728   181.19428     3.53325
    25.40000    89.04269   178.80567     3.53324    90.95731   181.19433     3.53324
    25.50000    89.04266   178.80563     3.53323    90.95734   181.19437     3.53323
    25.60000    89.04262   178.80559     3.53321    90.95738   181.19441     3.53321
    25.70000    89.04259   178.80554     3.53320    90.95741   181.19446     3.53320
    25.80000    89.04256   178.80550     3.53319    90.95744   181.19450     3.53319
    25.90000    89.04253   178.80545     3.53318    90.95747   181.19455     3.53318
    26.00000    89.04250   178.80541     3.53317    90.95750   181.19459     3.53317
    26.10000    89.04247   178.80536     3.53316    90.95753   181.19464     3.53316
    26.20000    89.04244   178.80532     3.53314    90.95756   181.19468     3.53314
    26.30000    89.04241   178.80528     3.53313    90.95759   181.19472     3.53313
    26.40000    89.04238   178.80523     3.53312    90.95762   181.19477     3.53312
    26.50000    89.04235   178.80519     3.53311    90.95765   181.19481     3.53311
    26.60000    89.04232   178.80514     3.53310    90.95768   181.19486     3.53310
    26.70000    89.04228   178.80510     3.53309    90.95772   181.19490     3.53309
    26.80000    89.04225   178.80505     3.53307    90.95775   181.19495     3.53307
    26.90000    89.04222   178.80501     3.53306    90.95778   181.19499     3.53306
    27.00000    89.04219   178.80497     3.53305    90.95781   181.19503     3.53305
    27.10000    89.04216   178.80492     3.53304    90.95784   181.19508     3.53304
    27.20000    89.04213   178.80488     3.53303    90.95787   181.19512     3.53303
    27.30000    89.04210   178.80483     3.53302    90.95790   181.19517     3.53302
    27.40000    89.04207   178.80479     3.53300    90.95793   181.19521     3.53300
    27.50000    89.04204   178.80474     3.53299    90.95796   181.19526     3.53299
    27.60000    89.04200   178.80470     3.53298    90.95800   181.19530     3.53298
    27.70000    89.04197   178.80466     3.53297    90.95803   181.19534     3.53297
    27.80000    89.04194   178.80461     3.53296    90.95806   181.19539     3.53296
    27.90000    89.04191   178.80457     3.53294    90.95809   181.19543     3.53294
    28.00000    89.04188   178.80452     3.53293    90.95812   181.19548     3.53293
    28.10000    89.04185   178.80448     3.53292    90.95815   181.19552     3.53292
    28.20000    89.04182   178.80443     3.53291    90.95818   181.19557     3.53291
    28.30000    89.04179   178.80439     3.53290    90.95821   181.19561     3.53290
    28.40000    89.04176   178.80434     3.53288    90.95824   181.19566     3.53288
    28.50000    89.04173   178.80430     3.53287    90.95827   181.19570     3.53287
    28.60000    89.04169   178.80426     3.53286    90.95831   181.19574     3.53286
    28.70000    89.04166   178.80421     3.53285    90.95834   181.19579     3.53285
    28.80000    89.04163   178.80417     3.53284    90.95837   181.19583     3.53284
    28.90000    89.04160   178.80412     3.53282    90.95840   181.19588     3.53282
    29.00000    89.04157   178.80408     3.53281    90.95843   181.19592     3.53281
    29.10000    89.04154   178.80403     3.53280    90.95846   181.19597     3.53280
    29.20000    89.04151   178.80399     3.53279    90.95849   181.19601     3.53279
    29.30000    89.04148   178.80395     3.53277    90.95852   181.19605     3.53277
    29.40000    89.04145   178.80390     3.53276    90.95855   181.19610     3.53276
    29.50000    89.04141   178.80386     3.53275    90.95859   181.19614     3.53275
    29.60000    89.04138   178.80381     3.53274    90.95862   181.19619     3.53274
    29.70000    89.04135   178.80377     3.53273    90.95865   181.19623     3.53273
    29.80000    89.04132   178.80372     3.53271    90.95868   181.19628     3.53271
    29.90000    89.04129   178.80368     3.53270    90.95871   181.19632     3.53270
    30.00000    89.04126   178.80363     3.53269    90.95874   181.19637     3.53269
    30.10000    89.04123   178.80359     3.53268    90.95877   181.19641     3.53268
    30.20000    89.04120   178.80355     3.53266    90.95880   181.19645     3.53266
    30.30000    89.04117   178.80350     3.53265    90.95883   181.19650     3.53265
    30.40000    89.04113   178.80346     3.53264    90.95887   181.19654     3.53264
    30.50000    89.04110   178.80341     3.53263    90.95890   181.19659     3.53263
    30.60000    89.04107   178.80337     3.53261    90.95893   181.19663     3.53261
    30.70000    89.04104   178.80332     3.53260    90.95896   181.19668     3.53260
    30.80000    89.04101   178.80328     3.53259    90.95899   181.19672     3.53259
    30.90000    89.04098   178.80323     3.53258    90.95902   181.19677     3.53258
    31.00000    89.04095   178.80319     3.53256    90.95905   181.19681     3.53256
    31.10000    89.04092   178.80315     3.53255    90.95908   181.19685     3.53255
    31.20000    89.04089   178.80310     3.53254    90.95911   181.19690     3.53254
    31.30000    89.04085   178.80306     3.53253    90.95915   181.19694     3.53253
    31.40000    89.04082   178.80301     3.53251    90.95918   181.19699     3.53251
    31.50000    89.04079   178.80297     3.53250    90.95921   181.19703     3.53250
    31.60000    89.04076   178.80292     3.53249    90.95924   181.19708     3.53249
    31.70000    89.04073   178.80288     3.53247    90.95927   181.19712     3.53247
    31.80000    89.04070   178.80283     3.53246    90.95930   181.19717     3.53246
    31.90000    89.04067   178.80279     3.53245    90.95933   181.19721     3.53245
    32.00000    89.04064   178.80274     3.53244    90.95936   181.19726     3.53244
    32.10000    89.04060   178.80270     3.53242    90.95940   181.19730     3.53242
    32.20000    89.04057   178.80266     3.53241    90.95943   181.19734     3.53241
    32.30000    89.04054   178.80261     3.53240    90.95946   181.19739     3.53240
    32.40000    89.04051   178.80257     3.53239    90.95949   181.19743     3.53239
    32.50000    89.04048   178.80252     3.53237    90.95952   181.19748     3.53237
    32.60000    89.04045   178.80248     3.53236    90.95955   181.19752     3.53236
    32.70000    89.04042   178.80243     3.53235    90.95958   181.19757     3.53235
    32.80000    89.04039   178.80239     3.53233    90.95961   181.19761     3.53233
    32.90000    89.04035   178.80234     3.53232    90.95965   181.19766     3.53232
    33.00000    89.04032   178.80230     3.53231    90.95968   181.19770     3.53231
    33.10000    89.04029   178.80225     3.53230    90.95971   181.19775     3.53230
    33.20000    89.04026   178.80221     3.53228    90.95974   181.19779     3.53228
    33.30000    89.04023   178.80217     3.53227    90.95977   181.19783     3.53227
    33.40000    89.04020   178.80212     3.53226    90.95980   181.19788     3.53226
    33.50000    89.04017   178.80208     3.53224    90.95983   181.19792     3.53224
    33.60000    89.04014   178.80203     3.53223    90.95986   181.19797     3.53223
    33.70000    89.04010   178.80199     3.53222    90.95990   181.19801     3.53222
    33.80000    89.04007   178.80194     3.53220    90.95993   181.19806     3.53220
    33.90000    89.04004   178.80190     3.53219    90.95996   181.19810     3.53219
    34.00000    89.04001   178.80185     3.53218    90.95999   181.19815     3.53218
    34.10000    89.03998   178.80181     3.53216    90.96002   181.19819     3.53216
    34.20000    89.03995   178.80176     3.53215    90.96005   181.19824     3.53215
    34.30000    89.03992   178.80172     3.53214    90.96008   181.19828     3.53214
    34.40000    89.03989   178.80167     3.53212    90.96011   181.19833     3.53212
    34.50000    89.03985   178.80163     3.53211    90.96015   181.19837     3.53211
    34.60000    89.03982   178.80159     3.53210    90.96018   181.19841     3.53210
    34.70000    89.03979   178.80154     3.53208    90.96021   181.19846     3.53208
    34.80000    89.03976   178.80150     3.53207    90.96024   181.19850     3.53207
    34.90000    89.03973   178.80145     3.53206    90.96027   181.19855     3.53206
    35.00000    89.03970   178.80141     3.53204    90.96030   181.19859     3.53204
    35.10000    89.03967   178.80136     3.53203    90.96033   181.19864     3.53203
    35.20000    89.03963   178.80132     3.53202    90.96037   181.19868     3.53202
    35.30000    89.03960   178.80127     3.53200    90.96040   181.19873     3.53200
    35.40000    89.03957   178.80123     3.53199    90.96043   181.19877     3.53199
    35.50000    89.03954   178.80118     3.53198    90.96046   181.19882     3.53198
    35.60000    89.03951   178.80114     3.53196    90.96049   181.19886     3.53196
    35.70000    89.03948   178.80109     3.53195    90.96052   181.19891     3.53195
    35.80000    89.03945   178.80105     3.53194    90.96055   181.19895     3.53194
    35.90000    89.03941   178.80100     3.53192    90.96059   181.19900     3.53192
    36.00000    89.03938   178.80096     3.53191    90.96062   181.19904     3.53191
    36.10000    89.03935   178.80092     3.53190    90.96065   181.19908     3.53190
    36.20000    89.03932   178.80087     3.53188    90.96068   181.19913     3.53188
    36.30000    89.03929   178.80083     3.53187    90.96071   181.19917     3.53187
    36.40000    89.03926   178.80078     3.53186    90.96074   181.19922     3.53186
    36.50000    89.03923   178.80074     3.53184    90.96077   181.19926     3.53184
    36.60000    89.03920   178.80069     3.53183    90.96080   181.19931     3.53183
    36.70000    89.03916   178.80065     3.53181    90.96084   181.19935     3.53181
    36.80000    89.03913   178.80060     3.53180    90.96087   181.19940     3.53180
    36.90000    89.03910   178.80056     3.53179    90.96090   181.19944     3.53179
    37.00000    89.03907   178.80051     3.53177    90.96093   181.19949     3.53177
    37.10000    89.03904   178.80047     3.53176    90.96096   181.19953     3.53176
    37.20000    89.03901   178.80042     3.53175    90.96099   181.19958     3.53175
    37.30000    89.03898   178.80038     3.53173    90.96102   181.19962     3.53173
    37.40000    89.03894   178.80033     3.53172    90.96106   181.19967     3.53172
    37.50000    89.03891   178.80029     3.53170    90.96109   181.19971     3.53170
    37.60000    89.03888   178.80024     3.53169    90.96112   181.19976     3.53169
    37.70000    89.03885   178.80020     3.53168    90.96115   181.19980     3.53168
    37.80000    89.03882   178.80015     3.53166    90.96118   181.19985     3.53166
    37.90000    89.03879   178.80011     3.53165    90.96121   181.19989     3.53165
    38.00000    89.03876   178.80007     3.53163    90.96124   181.19993     3.53163
    38.10000    89.03872   178.80002     3.53162    90.96128   181.19998     3.53162
    38.20000    89.03869   178.79998     3.53161    90.96131   181.20002     3.53161
    38.30000    89.03866   178.79993     3.53159    90.96134   181.20007     3.53159
    38.40000    89.03863   178.79989     3.53158    90.96137   181.20011     3.53158
    38.50000    89.03860   178.79984     3.53156    90.96140   181.20016     3.53156
    38.60000    89.03857   178.79980     3.53155    90.96143   181.20020     3.53155
    38.70000    89.03853   178.79975     3.53154    90.96147   181.20025     3.53154
    38.80000    89.03850   178.79971     3.53152    90.96150   181.20029     3.53152
    38.90000    89.03847   178.79966     3.53151    90.96153   181.20034     3.53151
    39.00000    89.03844   178.79962     3.53149    90.96156   181.20038     3.53149
    39.10000    89.03841   178.79957     3.53148    90.96159   181.20043     3.53148
    39.20000    89.03838   178.79953     3.53147    90.96162   181.20047     3.53147
    39.30000    89.03835   178.79948     3.53145    90.96165   181.20052     3.53145
    39.40000    89.03831   178.79944     3.53144    90.96169   181.20056     3.53144
    39.50000    89.03828   178.79939     3.53142    90.96172   181.20061     3.53142
    39.60000    89.03825   178.79935     3.53141    90.96175   181.20065     3.53141
    39.70000    89.03822   178.79930     3.53139    90.96178   181.20070     3.53139
    39.80000    89.03819   178.79926     3.53138    90.96181   181.20074     3.53138
    39.90000    89.03816   178.79921     3.53137    90.96184   181.20079     3.53137
    40.00000    89.03813   178.79917     3.53135    90.96187   181.20083     3.53135
