 # applied field (T), theta (degree), phi (degree), abs for RE 1-2
     0.00000    90.00000   225.42036     4.34728    90.00000   225.42036     4.34728
     0.10000    90.14166   225.42036     4.34728    90.14166   225.42036     4.34728
     0.20000    90.31891   224.57964     4.34727    90.31891   224.57964     4.34727
     0.30000    90.46057   224.57964     4.34726    90.46057   224.57964     4.34726
     0.40000    90.63784   225.42036     4.34725    90.63784   225.42036     4.34725
     0.50000    90.77951   224.57964     4.34723    90.77951   224.57964     4.34723
     0.60000    90.95680   224.57963     4.34721    90.95680   224.57963     4.34721
     0.70000    91.09849   225.42037     4.34719    91.09849   225.42037     4.34719
     0.80000    91.24020   225.42037     4.34716    91.24020   225.42037     4.34716
     0.90000    91.41753   224.57963     4.34713    91.41753   224.57963     4.34713
     1.00000    91.55927   224.57963     4.34709    91.55927   224.57963     4.34709
     1.10000    91.73664   224.57963     4.34705    91.73664   224.57963     4.34705
     1.20000    91.87842   225.42037     4.34701    91.87842   225.42037     4.34701
     1.30000    92.02022   225.42038     4.34697    92.02022   225.42038     4.34697
     1.40000    92.19767   225.42038     4.34691    92.19767   225.42038     4.34691
     1.50000    92.33952   225.42038     4.34686    92.33952   225.42038     4.34686
     1.60000    92.51703   225.42038     4.34680    92.51703   225.42038     4.34680
     1.70000    92.65894   224.57961     4.34674    92.65894   224.57961     4.34674
     1.80000    92.80087   225.42039     4.34668    92.80087   225.42039     4.34668
     1.90000    92.97850   225.42039     4.34661    92.97850   225.42039     4.34661
     2.00000    93.12050   224.57960     4.34654    93.12050   224.57960     4.34654
     2.10000    93.29821   224.57960     4.34646    93.29821   224.57960     4.34646
     2.20000    93.44029   225.42040     4.34638    93.44029   225.42040     4.34638
     2.30000    93.58240   224.57959     4.34631    93.58240   224.57959     4.34631
     2.40000    93.76026   224.57959     4.34621    93.76026   224.57959     4.34621
     2.50000    93.90246   224.57959     4.34613    93.90246   224.57959     4.34613
     2.60000    94.04469   225.42042     4.34604    94.04469   225.42042     4.34604
     2.70000    94.22271   225.00000     4.34593    94.22271   225.00000     4.34593
     2.80000    94.36505   225.00000     4.34584    94.36505   225.00000     4.34584
     2.90000    94.50743   225.00000     4.34575    94.50743   225.00000     4.34575
     3.00000    94.68564   225.00000     4.34562    94.68564   225.00000     4.34562
     3.10000    94.82812   225.00000     4.34552    94.82812   225.00000     4.34552
     3.20000    95.00647   225.00000     4.34539    95.00647   225.00000     4.34539
     3.30000    95.14908   225.00000     4.34528    95.14908   225.00000     4.34528
     3.40000    95.29173   225.00000     4.34517    95.29173   225.00000     4.34517
     3.50000    95.43444   225.00000     4.34505    95.43444   225.00000     4.34505
     3.60000    95.61308   225.00000     4.34491    95.61308   225.00000     4.34491
     3.70000    95.75593   225.00000     4.34478    95.75593   225.00000     4.34478
     3.80000    95.89883   225.00000     4.34466    95.89883   225.00000     4.34466
     3.90000    96.07771   225.00000     4.34450    96.07771   225.00000     4.34450
     4.00000    96.22075   225.00000     4.34437    96.22075   225.00000     4.34437
     4.10000    96.36386   225.00000     4.34423    96.36386   225.00000     4.34423
     4.20000    96.54302   224.57133     4.34406    96.54302   224.57133     4.34406
     4.30000    96.68628   224.57132     4.34392    96.68628   224.57132     4.34392
     4.40000    96.82962   224.57132     4.34377    96.82962   224.57132     4.34377
     4.50000    96.97302   224.57131     4.34362    96.97302   224.57131     4.34362
     4.60000    97.15254   225.42870     4.34344    97.15254   225.42870     4.34344
     4.70000    97.29611   224.57129     4.34328    97.29611   224.57129     4.34328
     4.80000    97.43976   224.57129     4.34312    97.43976   224.57129     4.34312
     4.90000    97.58349   224.57128     4.34296    97.58349   224.57128     4.34296
     5.00000    97.72730   225.42873     4.34280    97.72730   225.42873     4.34280
     5.10000    97.90733   224.57126     4.34259    97.90733   224.57126     4.34259
     5.20000    98.05133   224.57125     4.34242    98.05133   224.57125     4.34242
     5.30000    98.19539   225.00000     4.34225    98.19539   225.00000     4.34225
     5.40000    98.33955   225.00000     4.34207    98.33955   225.00000     4.34207
     5.50000    98.48381   225.00000     4.34189    98.48381   225.00000     4.34189
     5.60000    98.66441   225.00000     4.34166    98.66441   225.00000     4.34166
     5.70000    98.80887   225.00000     4.34148    98.80887   225.00000     4.34148
     5.80000    98.95342   225.00000     4.34129    98.95342   225.00000     4.34129
     5.90000    99.09807   225.00000     4.34109    99.09807   225.00000     4.34109
     6.00000    99.24281   225.00000     4.34090    99.24281   225.00000     4.34090
     6.10000    99.38765   225.00000     4.34070    99.38765   225.00000     4.34070
     6.20000    99.53259   225.00000     4.34050    99.53259   225.00000     4.34050
     6.30000    99.71408   225.43734     4.34024    99.71408   225.43734     4.34024
     6.40000    99.85926   224.56265     4.34003    99.85926   224.56265     4.34003
     6.50000   100.00454   225.43736     4.33982   100.00454   225.43736     4.33982
     6.60000   100.14992   224.56263     4.33960   100.14992   224.56263     4.33960
     6.70000   100.29542   224.56262     4.33939   100.29542   224.56262     4.33939
     6.80000   100.44102   224.56261     4.33916   100.44102   224.56261     4.33916
     6.90000   100.58674   225.43740     4.33894   100.58674   225.43740     4.33894
     7.00000   100.73257   224.56259     4.33871   100.73257   224.56259     4.33871
     7.10000   100.87849   225.00000     4.33848   100.87849   225.00000     4.33848
     7.20000   101.02456   225.00000     4.33825   101.02456   225.00000     4.33825
     7.30000   101.17074   225.00000     4.33801   101.17074   225.00000     4.33801
     7.40000   101.31704   225.00000     4.33778   101.31704   225.00000     4.33778
     7.50000   101.46346   225.00000     4.33753   101.46346   225.00000     4.33753
     7.60000   101.61001   225.00000     4.33729   101.61001   225.00000     4.33729
     7.70000   101.75668   225.00000     4.33704   101.75668   225.00000     4.33704
     7.80000   101.86663   225.00000     4.33685   101.86663   225.00000     4.33685
     7.90000   102.05043   224.55365     4.33653   102.05043   224.55365     4.33653
     8.00000   102.19749   225.44636     4.33627   102.19749   225.44636     4.33627
     8.10000   102.34468   224.55362     4.33601   102.34468   224.55362     4.33601
     8.20000   102.49200   225.44639     4.33575   102.49200   225.44639     4.33575
     8.30000   102.63946   225.44640     4.33548   102.63946   225.44640     4.33548
     8.40000   102.78706   225.44641     4.33521   102.78706   225.44641     4.33521
     8.50000   102.97186   225.00000     4.33488   102.97186   225.00000     4.33488
     8.60000   103.04554   225.00000     4.33473   103.04554   225.00000     4.33473
     8.70000   103.19352   225.00000     4.33446   103.19352   225.00000     4.33446
     8.80000   103.34165   225.00000     4.33418   103.34165   225.00000     4.33418
     8.90000   103.48992   225.00000     4.33389   103.48992   225.00000     4.33389
     9.00000   103.63835   225.00000     4.33360   103.63835   225.00000     4.33360
     9.10000   103.74964   225.00000     4.33338   103.74964   225.00000     4.33338
     9.20000   103.89832   225.00000     4.33309   103.89832   225.00000     4.33309
     9.30000   104.04719   225.45574     4.33280   104.04719   225.45574     4.33280
     9.40000   104.19618   225.45575     4.33250   104.19618   225.45575     4.33250
     9.50000   104.34532   224.54423     4.33220   104.34532   224.54423     4.33220
     9.60000   104.45717   224.54422     4.33196   104.45717   224.54422     4.33196
     9.70000   104.60659   224.54420     4.33166   104.60659   224.54420     4.33166
     9.80000   104.75618   224.54419     4.33135   104.75618   224.54419     4.33135
     9.90000   104.90590   225.00000     4.33104   104.90590   225.00000     4.33104
    10.00000   105.01821   225.00000     4.33080   105.01821   225.00000     4.33080
    10.10000   105.16824   225.00000     4.33048   105.16824   225.00000     4.33048
    10.20000   105.31845   225.00000     4.33016   105.31845   225.00000     4.33016
    10.30000   105.43111   225.00000     4.32991   105.43111   225.00000     4.32991
    10.40000   105.58161   225.00000     4.32959   105.58161   225.00000     4.32959
    10.50000   105.69450   225.00000     4.32934   105.69450   225.00000     4.32934
    10.60000   105.84534   224.53447     4.32900   105.84534   224.53447     4.32900
    10.70000   105.99632   225.46555     4.32867   105.99632   225.46555     4.32867
    10.80000   106.14749   224.53444     4.32833   106.14749   224.53444     4.32833
    10.90000   106.26088   224.53442     4.32807   106.26088   224.53442     4.32807
    11.00000   106.41236   225.46559     4.32773   106.41236   225.46559     4.32773
    11.10000   106.56399   225.00000     4.32739   106.56399   225.00000     4.32739
    11.20000   106.67776   225.00000     4.32712   106.67776   225.00000     4.32712
    11.30000   106.82975   225.00000     4.32677   106.82975   225.00000     4.32677
    11.40000   106.94377   225.00000     4.32650   106.94377   225.00000     4.32650
    11.50000   107.09609   225.00000     4.32615   107.09609   225.00000     4.32615
    11.60000   107.21037   225.00000     4.32588   107.21037   225.00000     4.32588
    11.70000   107.32475   225.00000     4.32560   107.32475   225.00000     4.32560
    11.80000   107.47759   225.47574     4.32524   107.47759   225.47574     4.32524
    11.90000   107.63060   225.47576     4.32487   107.63060   225.47576     4.32487
    12.00000   107.74539   224.52423     4.32459   107.74539   224.52423     4.32459
    12.10000   107.89875   224.52421     4.32422   107.89875   224.52421     4.32422
    12.20000   108.01381   224.52419     4.32393   108.01381   224.52419     4.32393
    12.30000   108.16749   225.00000     4.32356   108.16749   225.00000     4.32356
    12.40000   108.28282   225.00000     4.32327   108.28282   225.00000     4.32327
    12.50000   108.39828   225.00000     4.32298   108.39828   225.00000     4.32298
    12.60000   108.55251   225.00000     4.32259   108.55251   225.00000     4.32259
    12.70000   108.66824   225.00000     4.32230   108.66824   225.00000     4.32230
    12.80000   108.82285   225.00000     4.32191   108.82285   225.00000     4.32191
    12.90000   108.93890   224.51361     4.32161   108.93890   224.51361     4.32161
    13.00000   109.05504   224.51359     4.32131   109.05504   224.51359     4.32131
    13.10000   109.21019   225.48643     4.32091   109.21019   225.48643     4.32091
    13.20000   109.32662   225.48645     4.32061   109.32662   225.48645     4.32061
    13.30000   109.44318   224.51354     4.32031   109.44318   224.51354     4.32031
    13.40000   109.63786   225.00000     4.31981   109.63786   225.00000     4.31981
    13.50000   109.71569   225.00000     4.31959   109.71569   225.00000     4.31959
    13.60000   109.83268   225.00000     4.31928   109.83268   225.00000     4.31928
    13.70000   109.94980   225.00000     4.31897   109.94980   225.00000     4.31897
    13.80000   110.10624   225.00000     4.31856   110.10624   225.00000     4.31856
    13.90000   110.22366   225.00000     4.31824   110.22366   225.00000     4.31824
    14.00000   110.30194   225.00000     4.31802   110.30194   225.00000     4.31802
    14.10000   110.45895   224.50245     4.31760   110.45895   224.50245     4.31760
    14.20000   110.61615   225.49757     4.31718   110.61615   225.49757     4.31718
    14.30000   110.73416   225.49759     4.31685   110.73416   225.49759     4.31685
    14.40000   110.85230   225.49761     4.31653   110.85230   225.49761     4.31653
    14.50000   110.97058   224.50237     4.31620   110.97058   224.50237     4.31620
    14.60000   111.08896   225.00000     4.31587   111.08896   225.00000     4.31587
    14.70000   111.24714   225.00000     4.31544   111.24714   225.00000     4.31544
    14.80000   111.36589   225.00000     4.31511   111.36589   225.00000     4.31511
    14.90000   111.48478   225.00000     4.31477   111.48478   225.00000     4.31477
    15.00000   111.60382   225.00000     4.31443   111.60382   225.00000     4.31443
    15.10000   111.68320   225.00000     4.31420   111.68320   225.00000     4.31420
    15.20000   111.84237   224.49079     4.31376   111.84237   224.49079     4.31376
    15.30000   111.96184   225.50923     4.31341   111.96184   225.50923     4.31341
    15.40000   112.08146   225.50925     4.31307   112.08146   225.50925     4.31307
    15.50000   112.20122   225.50927     4.31273   112.20122   225.50927     4.31273
    15.60000   112.32114   225.50929     4.31238   112.32114   225.50929     4.31238
    15.70000   112.44116   225.00000     4.31204   112.44116   225.00000     4.31204
    15.80000   112.56138   225.00000     4.31169   112.56138   225.00000     4.31169
    15.90000   112.68175   225.00000     4.31134   112.68175   225.00000     4.31134
    16.00000   112.80227   225.00000     4.31098   112.80227   225.00000     4.31098
    16.10000   112.92295   225.00000     4.31063   112.92295   225.00000     4.31063
    16.20000   113.04378   225.00000     4.31027   113.04378   225.00000     4.31027
    16.30000   113.16482   224.47858     4.30991   113.16482   224.47858     4.30991
    16.40000   113.28596   225.52144     4.30955   113.28596   225.52144     4.30955
    16.50000   113.40727   224.47854     4.30919   113.40727   224.47854     4.30919
    16.60000   113.52873   225.52148     4.30883   113.52873   225.52148     4.30883
    16.70000   113.65036   224.47850     4.30847   113.65036   224.47850     4.30847
    16.80000   113.77209   225.00000     4.30810   113.77209   225.00000     4.30810
    16.90000   113.89404   225.00000     4.30774   113.89404   225.00000     4.30774
    17.00000   114.01615   225.00000     4.30737   114.01615   225.00000     4.30737
    17.10000   114.13843   225.00000     4.30700   114.13843   225.00000     4.30700
    17.20000   114.26087   225.00000     4.30662   114.26087   225.00000     4.30662
    17.30000   114.34257   225.00000     4.30637   114.34257   225.00000     4.30637
    17.40000   114.46535   225.53422     4.30599   114.46535   225.53422     4.30599
    17.50000   114.58824   224.46576     4.30561   114.58824   224.46576     4.30561
    17.60000   114.71130   224.46573     4.30524   114.71130   224.46573     4.30524
    17.70000   114.83453   224.46571     4.30486   114.83453   224.46571     4.30486
    17.80000   114.99905   225.00000     4.30436   114.99905   225.00000     4.30436
    17.90000   115.04024   225.00000     4.30421   115.04024   225.00000     4.30421
    18.00000   115.16393   225.00000     4.30383   115.16393   225.00000     4.30383
    18.10000   115.28780   225.00000     4.30344   115.28780   225.00000     4.30344
    18.20000   115.41184   225.00000     4.30306   115.41184   225.00000     4.30306
    18.30000   115.49464   225.00000     4.30279   115.49464   225.00000     4.30279
    18.40000   115.61897   225.00000     4.30240   115.61897   225.00000     4.30240
    18.50000   115.74355   225.54766     4.30201   115.74355   225.54766     4.30201
    18.60000   115.86824   225.54769     4.30161   115.86824   225.54769     4.30161
    18.70000   115.95149   224.45230     4.30134   115.95149   224.45230     4.30134
    18.80000   116.07649   224.45227     4.30095   116.07649   224.45227     4.30095
    18.90000   116.20167   224.45224     4.30055   116.20167   224.45224     4.30055
    19.00000   116.28520   225.00000     4.30028   116.28520   225.00000     4.30028
    19.10000   116.41069   225.00000     4.29988   116.41069   225.00000     4.29988
    19.20000   116.53637   225.00000     4.29948   116.53637   225.00000     4.29948
    19.30000   116.62028   225.00000     4.29920   116.62028   225.00000     4.29920
    19.40000   116.74628   225.00000     4.29880   116.74628   225.00000     4.29880
    19.50000   116.83041   225.00000     4.29852   116.83041   225.00000     4.29852
    19.60000   116.95678   225.56178     4.29811   116.95678   225.56178     4.29811
    19.70000   117.08328   225.56181     4.29770   117.08328   225.56181     4.29770
    19.80000   117.16775   225.56183     4.29742   117.16775   225.56183     4.29742
    19.90000   117.29458   224.43815     4.29701   117.29458   224.43815     4.29701
    20.00000   117.42160   224.43812     4.29660   117.42160   224.43812     4.29660
    20.10000   117.50637   225.00000     4.29631   117.50637   225.00000     4.29631
    20.20000   117.63372   225.00000     4.29590   117.63372   225.00000     4.29590
    20.30000   117.71877   225.00000     4.29561   117.71877   225.00000     4.29561
    20.40000   117.84645   225.00000     4.29519   117.84645   225.00000     4.29519
    20.50000   117.93173   225.00000     4.29491   117.93173   225.00000     4.29491
    20.60000   118.05974   225.00000     4.29449   118.05974   225.00000     4.29449
    20.70000   118.14531   224.42337     4.29419   118.14531   224.42337     4.29419
    20.80000   118.27366   224.42334     4.29377   118.27366   224.42334     4.29377
    20.90000   118.35940   224.42332     4.29348   118.35940   224.42332     4.29348
    21.00000   118.48810   225.57671     4.29305   118.48810   225.57671     4.29305
    21.10000   118.57407   225.57673     4.29276   118.57407   225.57673     4.29276
    21.20000   118.70305   225.00000     4.29234   118.70305   225.00000     4.29234
    21.30000   118.78925   225.00000     4.29204   118.78925   225.00000     4.29204
    21.40000   118.87556   225.00000     4.29174   118.87556   225.00000     4.29174
    21.50000   119.00509   225.00000     4.29131   119.00509   225.00000     4.29131
    21.60000   119.09163   225.00000     4.29101   119.09163   225.00000     4.29101
    21.70000   119.22152   225.00000     4.29058   119.22152   225.00000     4.29058
    21.80000   119.26501   225.00000     4.29042   119.26501   225.00000     4.29042
    21.90000   119.39525   225.59230     4.28998   119.39525   225.59230     4.28998
    22.00000   119.52564   225.59233     4.28954   119.52564   225.59233     4.28954
    22.10000   119.61277   224.40765     4.28924   119.61277   224.40765     4.28924
    22.20000   119.69999   224.40763     4.28894   119.69999   224.40763     4.28894
    22.30000   119.87443   225.00000     4.28836   119.87443   225.00000     4.28836
    22.40000   119.91831   225.00000     4.28819   119.91831   225.00000     4.28819
    22.50000   120.00589   225.00000     4.28789   120.00589   225.00000     4.28789
    22.60000   120.13731   225.00000     4.28744   120.13731   225.00000     4.28744
    22.70000   120.22514   225.00000     4.28714   120.22514   225.00000     4.28714
    22.80000   120.31307   225.00000     4.28683   120.31307   225.00000     4.28683
    22.90000   120.44502   225.00000     4.28638   120.44502   225.00000     4.28638
    23.00000   120.53327   225.60880     4.28607   120.53327   225.60880     4.28607
    23.10000   120.62156   224.39117     4.28576   120.62156   224.39117     4.28576
    23.20000   120.75405   224.39114     4.28531   120.75405   224.39114     4.28531
    23.30000   120.84260   225.60888     4.28500   120.84260   225.60888     4.28500
    23.40000   120.93126   225.60890     4.28468   120.93126   225.60890     4.28468
    23.50000   121.06421   225.00000     4.28423   121.06421   225.00000     4.28423
    23.60000   121.10883   225.00000     4.28406   121.10883   225.00000     4.28406
    23.70000   121.24217   225.00000     4.28360   121.24217   225.00000     4.28360
    23.80000   121.33130   225.00000     4.28329   121.33130   225.00000     4.28329
    23.90000   121.42055   225.00000     4.28297   121.42055   225.00000     4.28297
    24.00000   121.50990   225.00000     4.28265   121.50990   225.00000     4.28265
    24.10000   121.59937   225.00000     4.28234   121.59937   225.00000     4.28234
    24.20000   121.73365   224.37374     4.28187   121.73365   224.37374     4.28187
    24.30000   121.82339   224.37372     4.28155   121.82339   224.37372     4.28155
    24.40000   121.91323   225.62630     4.28123   121.91323   225.62630     4.28123
    24.50000   122.00319   225.62633     4.28091   122.00319   225.62633     4.28091
    24.60000   122.09326   225.62635     4.28059   122.09326   225.62635     4.28059
    24.70000   122.22831   225.00000     4.28013   122.22831   225.00000     4.28013
    24.80000   122.27367   225.00000     4.27995   122.27367   225.00000     4.27995
    24.90000   122.40912   225.00000     4.27948   122.40912   225.00000     4.27948
    25.00000   122.49969   225.00000     4.27916   122.49969   225.00000     4.27916
    25.10000   122.59038   225.00000     4.27883   122.59038   225.00000     4.27883
    25.20000   122.68119   225.00000     4.27850   122.68119   225.00000     4.27850
    25.30000   122.77211   225.00000     4.27818   122.77211   225.00000     4.27818
    25.40000   122.86321   224.35529     4.27785   122.86321   224.35529     4.27785
    25.50000   122.95437   225.64473     4.27752   122.95437   225.64473     4.27752
    25.60000   123.04563   224.35524     4.27719   123.04563   224.35524     4.27719
    25.70000   123.13702   224.35522     4.27686   123.13702   224.35522     4.27686
    25.80000   123.22852   224.35519     4.27654   123.22852   224.35519     4.27654
    25.90000   123.36570   225.00000     4.27606   123.36570   225.00000     4.27606
    26.00000   123.41182   225.00000     4.27588   123.41182   225.00000     4.27588
    26.10000   123.50368   225.00000     4.27554   123.50368   225.00000     4.27554
    26.20000   123.59566   225.00000     4.27521   123.59566   225.00000     4.27521
    26.30000   123.68776   225.00000     4.27488   123.68776   225.00000     4.27488
    26.40000   123.77998   225.00000     4.27455   123.77998   225.00000     4.27455
    26.50000   123.87233   225.00000     4.27421   123.87233   225.00000     4.27421
    26.60000   123.91879   225.00000     4.27403   123.91879   225.00000     4.27403
    26.70000   124.05746   224.33572     4.27354   124.05746   224.33572     4.27354
    26.80000   124.15017   225.66431     4.27320   124.15017   225.66431     4.27320
    26.90000   124.24300   225.66434     4.27287   124.24300   225.66434     4.27287
    27.00000   124.33597   224.33564     4.27253   124.33597   224.33564     4.27253
    27.10000   124.42905   225.66439     4.27219   124.42905   225.66439     4.27219
    27.20000   124.52219   225.00000     4.27185   124.52219   225.00000     4.27185
    27.30000   124.61552   225.00000     4.27151   124.61552   225.00000     4.27151
    27.40000   124.70899   225.00000     4.27117   124.70899   225.00000     4.27117
    27.50000   124.80258   225.00000     4.27083   124.80258   225.00000     4.27083
    27.60000   124.89630   225.00000     4.27049   124.89630   225.00000     4.27049
    27.70000   124.99014   225.00000     4.27015   124.99014   225.00000     4.27015
    27.80000   125.03740   225.00000     4.26996   125.03740   225.00000     4.26996
    27.90000   125.13152   224.31497     4.26962   125.13152   224.31497     4.26962
    28.00000   125.22569   224.31494     4.26927   125.22569   224.31494     4.26927
    28.10000   125.32000   224.31491     4.26893   125.32000   224.31491     4.26893
    28.20000   125.41443   225.68511     4.26858   125.41443   225.68511     4.26858
    28.30000   125.50900   225.68514     4.26824   125.50900   225.68514     4.26824
    28.40000   125.60370   225.68517     4.26789   125.60370   225.68517     4.26789
    28.50000   125.65132   225.00000     4.26770   125.65132   225.00000     4.26770
    28.60000   125.74622   225.00000     4.26736   125.74622   225.00000     4.26736
    28.70000   125.84126   225.00000     4.26701   125.84126   225.00000     4.26701
    28.80000   125.93643   225.00000     4.26666   125.93643   225.00000     4.26666
    28.90000   126.03173   225.00000     4.26631   126.03173   225.00000     4.26631
    29.00000   126.12717   225.00000     4.26596   126.12717   225.00000     4.26596
    29.10000   126.17526   225.00000     4.26577   126.17526   225.00000     4.26577
    29.20000   126.27099   224.29288     4.26542   126.27099   224.29288     4.26542
    29.30000   126.36678   225.70715     4.26507   126.36678   225.70715     4.26507
    29.40000   126.46270   225.70717     4.26471   126.46270   225.70717     4.26471
    29.50000   126.51105   224.29281     4.26452   126.51105   224.29281     4.26452
    29.60000   126.60718   225.70722     4.26417   126.60718   225.70722     4.26417
    29.70000   126.70346   224.29275     4.26381   126.70346   224.29275     4.26381
    29.80000   126.79980   225.00000     4.26346   126.79980   225.00000     4.26346
    29.90000   126.84840   225.00000     4.26327   126.84840   225.00000     4.26327
    30.00000   126.94503   225.00000     4.26291   126.94503   225.00000     4.26291
    30.10000   127.04180   225.00000     4.26256   127.04180   225.00000     4.26256
    30.20000   127.13872   225.00000     4.26220   127.13872   225.00000     4.26220
    30.30000   127.18758   225.00000     4.26200   127.18758   225.00000     4.26200
    30.40000   127.28472   225.00000     4.26165   127.28472   225.00000     4.26165
    30.50000   127.33369   225.00000     4.26145   127.33369   225.00000     4.26145
    30.60000   127.43113   225.73066     4.26109   127.43113   225.73066     4.26109
    30.70000   127.52863   224.26931     4.26073   127.52863   224.26931     4.26073
    30.80000   127.62628   225.73072     4.26037   127.62628   225.73072     4.26037
    30.90000   127.72408   224.26925     4.26001   127.72408   224.26925     4.26001
    31.00000   127.77340   225.73076     4.25981   127.77340   225.73076     4.25981
    31.10000   127.87142   224.26921     4.25945   127.87142   224.26921     4.25945
    31.20000   127.96951   225.00000     4.25909   127.96951   225.00000     4.25909
    31.30000   128.01903   225.00000     4.25889   128.01903   225.00000     4.25889
    31.40000   128.11743   225.00000     4.25853   128.11743   225.00000     4.25853
    31.50000   128.16707   225.00000     4.25833   128.16707   225.00000     4.25833
    31.60000   128.26570   225.00000     4.25797   128.26570   225.00000     4.25797
    31.70000   128.36448   225.00000     4.25760   128.36448   225.00000     4.25760
    31.80000   128.41432   225.00000     4.25740   128.41432   225.00000     4.25740
    31.90000   128.46420   225.00000     4.25720   128.46420   225.00000     4.25720
    32.00000   128.61259   224.24420     4.25667   128.61259   224.24420     4.25667
    32.10000   128.66263   225.75581     4.25647   128.66263   225.75581     4.25647
    32.20000   128.76203   225.75585     4.25610   128.76203   225.75585     4.25610
    32.30000   128.81220   225.75586     4.25590   128.81220   225.75586     4.25590
    32.40000   128.91184   225.75589     4.25554   128.91184   225.75589     4.25554
    32.50000   129.01164   224.24408     4.25517   129.01164   224.24408     4.25517
    32.60000   129.11152   225.00000     4.25480   129.11152   225.00000     4.25480
    32.70000   129.16197   225.00000     4.25460   129.16197   225.00000     4.25460
    32.80000   129.21247   225.00000     4.25440   129.21247   225.00000     4.25440
    32.90000   129.31276   225.00000     4.25403   129.31276   225.00000     4.25403
    33.00000   129.36339   225.00000     4.25382   129.36339   225.00000     4.25382
    33.10000   129.46392   225.00000     4.25345   129.46392   225.00000     4.25345
    33.20000   129.51467   225.00000     4.25325   129.51467   225.00000     4.25325
    33.30000   129.61545   225.00000     4.25288   129.61545   225.00000     4.25288
    33.40000   129.71648   225.78268     4.25250   129.71648   225.78268     4.25250
    33.50000   129.76745   225.78269     4.25230   129.76745   225.78269     4.25230
    33.60000   129.86865   224.21727     4.25192   129.86865   224.21727     4.25192
    33.70000   129.91975   224.21726     4.25172   129.91975   224.21726     4.25172
    33.80000   130.02119   224.21722     4.25134   130.02119   224.21722     4.25134
    33.90000   130.07243   224.21721     4.25114   130.07243   224.21721     4.25114
    34.00000   130.17413   224.21717     4.25076   130.17413   224.21717     4.25076
    34.10000   130.27592   225.00000     4.25039   130.27592   225.00000     4.25039
    34.20000   130.32737   225.00000     4.25018   130.32737   225.00000     4.25018
    34.30000   130.37887   225.00000     4.24998   130.37887   225.00000     4.24998
    34.40000   130.48109   225.00000     4.24960   130.48109   225.00000     4.24960
    34.50000   130.53273   225.00000     4.24939   130.53273   225.00000     4.24939
    34.60000   130.58441   225.00000     4.24918   130.58441   225.00000     4.24918
    34.70000   130.68698   225.00000     4.24881   130.68698   225.00000     4.24881
    34.80000   130.73880   225.00000     4.24860   130.73880   225.00000     4.24860
    34.90000   130.79067   225.00000     4.24839   130.79067   225.00000     4.24839
    35.00000   130.89369   224.18847     4.24801   130.89369   224.18847     4.24801
    35.10000   130.99679   224.18843     4.24763   130.99679   224.18843     4.24763
    35.20000   131.04889   225.81158     4.24742   131.04889   225.81158     4.24742
    35.30000   131.15226   224.18838     4.24704   131.15226   224.18838     4.24704
    35.40000   131.20450   224.18836     4.24683   131.20450   224.18836     4.24683
    35.50000   131.25679   224.18835     4.24662   131.25679   224.18835     4.24662
    35.60000   131.36053   224.18831     4.24624   131.36053   224.18831     4.24624
    35.70000   131.41287   225.00000     4.24603   131.41287   225.00000     4.24603
    35.80000   131.51689   225.00000     4.24565   131.51689   225.00000     4.24565
    35.90000   131.56946   225.00000     4.24544   131.56946   225.00000     4.24544
    36.00000   131.62209   225.00000     4.24523   131.62209   225.00000     4.24523
    36.10000   131.72648   225.00000     4.24484   131.72648   225.00000     4.24484
    36.20000   131.77925   225.00000     4.24463   131.77925   225.00000     4.24463
    36.30000   131.88392   225.00000     4.24425   131.88392   225.00000     4.24425
    36.40000   131.93684   225.00000     4.24404   131.93684   225.00000     4.24404
    36.50000   131.98989   225.84253     4.24382   131.98989   225.84253     4.24382
    36.60000   132.09495   224.15743     4.24344   132.09495   224.15743     4.24344
    36.70000   132.14806   224.15741     4.24322   132.14806   224.15741     4.24322
    36.80000   132.20123   224.15740     4.24301   132.20123   224.15740     4.24301
    36.90000   132.30667   225.84264     4.24262   132.30667   225.84264     4.24262
    37.00000   132.35999   225.84266     4.24241   132.35999   225.84266     4.24241
    37.10000   132.46572   224.15731     4.24202   132.46572   224.15731     4.24202
    37.20000   132.51919   224.15729     4.24181   132.51919   224.15729     4.24181
    37.30000   132.57262   225.00000     4.24160   132.57262   225.00000     4.24160
    37.40000   132.67875   225.00000     4.24121   132.67875   225.00000     4.24121
    37.50000   132.73243   225.00000     4.24099   132.73243   225.00000     4.24099
    37.60000   132.78616   225.00000     4.24078   132.78616   225.00000     4.24078
    37.70000   132.83994   225.00000     4.24056   132.83994   225.00000     4.24056
    37.80000   132.94657   225.00000     4.24017   132.94657   225.00000     4.24017
    37.90000   133.00051   225.00000     4.23996   133.00051   225.00000     4.23996
    38.00000   133.05450   225.00000     4.23974   133.05450   225.00000     4.23974
    38.10000   133.10855   225.00000     4.23953   133.10855   225.00000     4.23953
    38.20000   133.21579   225.87600     4.23914   133.21579   225.87600     4.23914
    38.30000   133.26999   225.87602     4.23892   133.26999   225.87602     4.23892
    38.40000   133.37745   225.87606     4.23853   133.37745   225.87606     4.23853
    38.50000   133.43182   224.12392     4.23831   133.43182   224.12392     4.23831
    38.60000   133.48624   224.12390     4.23809   133.48624   224.12390     4.23809
    38.70000   133.54071   224.12388     4.23788   133.54071   224.12388     4.23788
    38.80000   133.64870   224.12385     4.23748   133.64870   224.12385     4.23748
    38.90000   133.70334   224.12383     4.23727   133.70334   224.12383     4.23727
    39.00000   133.75794   225.00000     4.23705   133.75794   225.00000     4.23705
    39.10000   133.81270   225.00000     4.23683   133.81270   225.00000     4.23683
    39.20000   133.92121   225.00000     4.23644   133.92121   225.00000     4.23644
    39.30000   133.97613   225.00000     4.23622   133.97613   225.00000     4.23622
    39.40000   134.03111   225.00000     4.23600   134.03111   225.00000     4.23600
    39.50000   134.08615   225.00000     4.23578   134.08615   225.00000     4.23578
    39.60000   134.19521   225.00000     4.23538   134.19521   225.00000     4.23538
    39.70000   134.25041   225.00000     4.23517   134.25041   225.00000     4.23517
    39.80000   134.30568   225.00000     4.23495   134.30568   225.00000     4.23495
    39.90000   134.36109   224.08783     4.23473   134.36109   224.08783     4.23473
    40.00000   134.47071   225.91221     4.23433   134.47071   225.91221     4.23433
