 # applied field (T), theta (degree), phi (degree), abs for RE 3-4
     0.00000   179.00479   135.00000     0.10072   179.00479    45.00000     0.10072
     0.10000   177.51295   168.52594     0.10081   178.62277   137.71601     0.10078
     0.20000   175.82539   176.04696     0.10094   177.03072   157.17896     0.10088
     0.30000   174.11615   179.19397     0.10112   175.34339   162.77807     0.10104
     0.40000   172.40814   180.90922     0.10135   173.64368   165.34980     0.10123
     0.50000   170.70885   181.98649     0.10162   171.94709   166.80450     0.10148
     0.60000   169.02211   182.72626     0.10194   170.25964   167.72705     0.10176
     0.70000   167.26914   183.28663     0.10232   168.50337   168.38420     0.10211
     0.80000   165.61523   183.69575     0.10272   166.84417   168.82438     0.10248
     0.90000   163.90030   184.03284     0.10318   165.12215   169.16514     0.10290
     1.00000   162.20694   184.30632     0.10368   163.42038   169.41807     0.10336
     1.10000   160.53617   184.53413     0.10421   161.74025   169.60838     0.10386
     1.20000   158.81252   184.73484     0.10479   160.00623   169.76048     0.10441
     1.30000   157.11499   184.90810     0.10541   158.29804   169.87424     0.10499
     1.40000   155.44394   185.06040     0.10605   156.61634   169.95854     0.10560
     1.50000   153.72686   185.20083     0.10674   154.88855   170.02378     0.10626
     1.60000   151.96741   185.33153     0.10748   153.11861   170.07209     0.10697
     1.70000   150.23917   185.45073     0.10822   151.38072   170.10295     0.10770
     1.80000   148.54170   185.56091     0.10897   149.67451   170.11985     0.10844
     1.90000   146.73956   185.67023     0.10978   147.86392   170.12815     0.10925
     2.00000   144.97210   185.77334     0.11058   146.08873   170.12575     0.11007
     2.10000   143.17375   185.87460     0.11139   144.28264   170.11537     0.11092
     2.20000   141.34763   185.97505     0.11220   142.44798   170.09797     0.11179
     2.30000   139.43487   186.07845     0.11303   140.52427   170.07448     0.11272
     2.40000   137.56407   186.18044     0.11382   138.63898   170.04574     0.11363
     2.50000   135.55689   186.29044     0.11462   136.60958   170.01231     0.11461
     2.60000   133.48336   186.40724     0.11540   134.50223   169.97510     0.11561
     2.70000   131.40787   186.52966     0.11611   132.37719   169.93583     0.11660
     2.80000   129.17131   186.66850     0.11681   130.06375   169.89446     0.11764
     2.90000   126.79283   186.82682     0.11747   127.56883   169.85286     0.11872
     3.00000   124.29167   187.00794     0.11807   124.89715   169.81376     0.11981
     3.10000   121.58816   187.22230     0.11865   121.94409   169.78030     0.12094
     3.20000   118.56630   187.48468     0.11924   118.55623   169.75830     0.12211
     3.30000   115.07542   187.81394     0.11994   114.53327   169.75943     0.12334
     3.40000   110.63300   188.24500     0.12101   109.32300   169.81186     0.12471
     3.50000   103.82927   188.81414     0.12327   101.45087   170.01108     0.12635
     3.60000    91.54864   189.33878     0.12814    88.45136   170.66122     0.12814
     3.70000    91.54989   189.34629     0.12801    88.45011   170.65371     0.12801
     3.80000    91.55115   189.35382     0.12789    88.44885   170.64618     0.12789
     3.90000    91.55241   189.36136     0.12776    88.44759   170.63864     0.12776
     4.00000    91.55367   189.36891     0.12764    88.44633   170.63109     0.12764
     4.10000    91.55493   189.37647     0.12752    88.44507   170.62353     0.12752
     4.20000    91.55620   189.38405     0.12739    88.44380   170.61595     0.12739
     4.30000    91.55746   189.39165     0.12727    88.44254   170.60835     0.12727
     4.40000    91.55873   189.39925     0.12715    88.44127   170.60075     0.12715
     4.50000    91.56000   189.40688     0.12702    88.44000   170.59312     0.12702
     4.60000    91.56128   189.41451     0.12690    88.43872   170.58549     0.12690
     4.70000    91.56256   189.42216     0.12677    88.43744   170.57784     0.12677
     4.80000    91.56383   189.42982     0.12665    88.43617   170.57018     0.12665
     4.90000    91.56512   189.43750     0.12653    88.43488   170.56250     0.12653
     5.00000    91.56640   189.44519     0.12640    88.43360   170.55481     0.12640
     5.10000    91.56768   189.45290     0.12628    88.43232   170.54710     0.12628
     5.20000    91.56897   189.46062     0.12615    88.43103   170.53938     0.12615
     5.30000    91.57026   189.46835     0.12603    88.42974   170.53165     0.12603
     5.40000    91.57156   189.47610     0.12591    88.42844   170.52390     0.12591
     5.50000    91.57285   189.48386     0.12578    88.42715   170.51614     0.12578
     5.60000    91.57415   189.49164     0.12566    88.42585   170.50836     0.12566
     5.70000    91.57545   189.49943     0.12554    88.42455   170.50057     0.12554
     5.80000    91.57675   189.50724     0.12541    88.42325   170.49276     0.12541
     5.90000    91.57806   189.51506     0.12529    88.42194   170.48494     0.12529
     6.00000    91.57936   189.52289     0.12517    88.42064   170.47711     0.12517
     6.10000    91.58067   189.53074     0.12504    88.41933   170.46926     0.12504
     6.20000    91.58198   189.53860     0.12492    88.41802   170.46140     0.12492
     6.30000    91.58330   189.54648     0.12479    88.41670   170.45352     0.12479
     6.40000    91.58461   189.55438     0.12467    88.41539   170.44562     0.12467
     6.50000    91.58593   189.56228     0.12455    88.41407   170.43772     0.12455
     6.60000    91.58725   189.57021     0.12442    88.41275   170.42979     0.12442
     6.70000    91.58858   189.57814     0.12430    88.41142   170.42186     0.12430
     6.80000    91.58990   189.58610     0.12418    88.41010   170.41390     0.12418
     6.90000    91.59123   189.59406     0.12405    88.40877   170.40594     0.12405
     7.00000    91.59256   189.60205     0.12393    88.40744   170.39795     0.12393
     7.10000    91.59390   189.61004     0.12381    88.40610   170.38996     0.12381
     7.20000    91.59523   189.61805     0.12368    88.40477   170.38195     0.12368
     7.30000    91.59657   189.62608     0.12356    88.40343   170.37392     0.12356
     7.40000    91.59791   189.63412     0.12344    88.40209   170.36588     0.12344
     7.50000    91.59925   189.64218     0.12331    88.40075   170.35782     0.12331
     7.60000    91.60060   189.65025     0.12319    88.39940   170.34975     0.12319
     7.70000    91.60195   189.65834     0.12307    88.39805   170.34166     0.12307
     7.80000    91.60330   189.66644     0.12294    88.39670   170.33356     0.12294
     7.90000    91.60465   189.67456     0.12282    88.39535   170.32544     0.12282
     8.00000    91.60601   189.68270     0.12269    88.39399   170.31730     0.12269
     8.10000    91.60737   189.69085     0.12257    88.39263   170.30915     0.12257
     8.20000    91.60873   189.69901     0.12245    88.39127   170.30099     0.12245
     8.30000    91.61009   189.70719     0.12232    88.38991   170.29281     0.12232
     8.40000    91.61146   189.71539     0.12220    88.38854   170.28461     0.12220
     8.50000    91.61282   189.72360     0.12208    88.38718   170.27640     0.12208
     8.60000    91.61420   189.73183     0.12195    88.38580   170.26817     0.12195
     8.70000    91.61557   189.74007     0.12183    88.38443   170.25993     0.12183
     8.80000    91.61695   189.74833     0.12171    88.38305   170.25167     0.12171
     8.90000    91.61832   189.75660     0.12159    88.38168   170.24340     0.12159
     9.00000    91.61971   189.76489     0.12146    88.38029   170.23511     0.12146
     9.10000    91.62109   189.77320     0.12134    88.37891   170.22680     0.12134
     9.20000    91.62248   189.78152     0.12122    88.37752   170.21848     0.12122
     9.30000    91.62386   189.78986     0.12109    88.37614   170.21014     0.12109
     9.40000    91.62526   189.79821     0.12097    88.37474   170.20179     0.12097
     9.50000    91.62665   189.80658     0.12085    88.37335   170.19342     0.12085
     9.60000    91.62805   189.81496     0.12072    88.37195   170.18504     0.12072
     9.70000    91.62945   189.82337     0.12060    88.37055   170.17663     0.12060
     9.80000    91.63085   189.83178     0.12048    88.36915   170.16822     0.12048
     9.90000    91.63225   189.84022     0.12035    88.36775   170.15978     0.12035
    10.00000    91.63366   189.84867     0.12023    88.36634   170.15133     0.12023
    10.10000    91.63507   189.85714     0.12011    88.36493   170.14286     0.12011
    10.20000    91.63648   189.86562     0.11998    88.36352   170.13438     0.11998
    10.30000    91.63790   189.87412     0.11986    88.36210   170.12588     0.11986
    10.40000    91.63932   189.88264     0.11974    88.36068   170.11736     0.11974
    10.50000    91.64074   189.89117     0.11961    88.35926   170.10883     0.11961
    10.60000    91.64216   189.89972     0.11949    88.35784   170.10028     0.11949
    10.70000    91.64359   189.90828     0.11937    88.35641   170.09172     0.11937
    10.80000    91.64502   189.91687     0.11925    88.35498   170.08313     0.11925
    10.90000    91.64645   189.92547     0.11912    88.35355   170.07453     0.11912
    11.00000    91.64788   189.93408     0.11900    88.35212   170.06592     0.11900
    11.10000    91.64932   189.94272     0.11888    88.35068   170.05728     0.11888
    11.20000    91.65076   189.95137     0.11875    88.34924   170.04863     0.11875
    11.30000    91.65220   189.96003     0.11863    88.34780   170.03997     0.11863
    11.40000    91.65365   189.96872     0.11851    88.34635   170.03128     0.11851
    11.50000    91.65510   189.97742     0.11838    88.34490   170.02258     0.11838
    11.60000    91.65655   189.98613     0.11826    88.34345   170.01387     0.11826
    11.70000    91.65800   189.99487     0.11814    88.34200   170.00513     0.11814
    11.80000    91.65946   190.00362     0.11802    88.34054   169.99638     0.11802
    11.90000    91.66092   190.01239     0.11789    88.33908   169.98761     0.11789
    12.00000    91.66238   190.02118     0.11777    88.33762   169.97882     0.11777
    12.10000    91.66385   190.02998     0.11765    88.33615   169.97002     0.11765
    12.20000    91.66531   190.03880     0.11752    88.33469   169.96120     0.11752
    12.30000    91.66678   190.04764     0.11740    88.33322   169.95236     0.11740
    12.40000    91.66826   190.05650     0.11728    88.33174   169.94350     0.11728
    12.50000    91.66973   190.06537     0.11716    88.33027   169.93463     0.11716
    12.60000    91.67121   190.07426     0.11703    88.32879   169.92574     0.11703
    12.70000    91.67270   190.08317     0.11691    88.32730   169.91683     0.11691
    12.80000    91.67418   190.09210     0.11679    88.32582   169.90790     0.11679
    12.90000    91.67567   190.10104     0.11667    88.32433   169.89896     0.11667
    13.00000    91.67716   190.11001     0.11654    88.32284   169.88999     0.11654
    13.10000    91.67865   190.11899     0.11642    88.32135   169.88101     0.11642
    13.20000    91.68015   190.12799     0.11630    88.31985   169.87201     0.11630
    13.30000    91.68165   190.13700     0.11617    88.31835   169.86300     0.11617
    13.40000    91.68315   190.14604     0.11605    88.31685   169.85396     0.11605
    13.50000    91.68466   190.15509     0.11593    88.31534   169.84491     0.11593
    13.60000    91.68617   190.16416     0.11581    88.31383   169.83584     0.11581
    13.70000    91.68768   190.17325     0.11568    88.31232   169.82675     0.11568
    13.80000    91.68919   190.18235     0.11556    88.31081   169.81765     0.11556
    13.90000    91.69071   190.19148     0.11544    88.30929   169.80852     0.11544
    14.00000    91.69223   190.20062     0.11532    88.30777   169.79938     0.11532
    14.10000    91.69375   190.20978     0.11519    88.30625   169.79022     0.11519
    14.20000    91.69528   190.21896     0.11507    88.30472   169.78104     0.11507
    14.30000    91.69681   190.22816     0.11495    88.30319   169.77184     0.11495
    14.40000    91.69834   190.23738     0.11483    88.30166   169.76262     0.11483
    14.50000    91.69988   190.24662     0.11470    88.30012   169.75338     0.11470
    14.60000    91.70142   190.25587     0.11458    88.29858   169.74413     0.11458
    14.70000    91.70296   190.26515     0.11446    88.29704   169.73485     0.11446
    14.80000    91.70450   190.27444     0.11434    88.29550   169.72556     0.11434
    14.90000    91.70605   190.28375     0.11421    88.29395   169.71625     0.11421
    15.00000    91.70760   190.29308     0.11409    88.29240   169.70692     0.11409
    15.10000    91.70915   190.30243     0.11397    88.29085   169.69757     0.11397
    15.20000    91.71071   190.31180     0.11385    88.28929   169.68820     0.11385
    15.30000    91.71227   190.32118     0.11372    88.28773   169.67882     0.11372
    15.40000    91.71383   190.33059     0.11360    88.28617   169.66941     0.11360
    15.50000    91.71540   190.34002     0.11348    88.28460   169.65998     0.11348
    15.60000    91.71697   190.34946     0.11336    88.28303   169.65054     0.11336
    15.70000    91.71854   190.35893     0.11323    88.28146   169.64107     0.11323
    15.80000    91.72012   190.36841     0.11311    88.27988   169.63159     0.11311
    15.90000    91.72170   190.37791     0.11299    88.27830   169.62209     0.11299
    16.00000    91.72328   190.38743     0.11287    88.27672   169.61257     0.11287
    16.10000    91.72486   190.39698     0.11274    88.27514   169.60302     0.11274
    16.20000    91.72645   190.40654     0.11262    88.27355   169.59346     0.11262
    16.30000    91.72804   190.41612     0.11250    88.27196   169.58388     0.11250
    16.40000    91.72964   190.42572     0.11238    88.27036   169.57428     0.11238
    16.50000    91.73124   190.43534     0.11226    88.26876   169.56466     0.11226
    16.60000    91.73284   190.44498     0.11213    88.26716   169.55502     0.11213
    16.70000    91.73444   190.45465     0.11201    88.26556   169.54535     0.11201
    16.80000    91.73605   190.46433     0.11189    88.26395   169.53567     0.11189
    16.90000    91.73766   190.47403     0.11177    88.26234   169.52597     0.11177
    17.00000    91.73928   190.48375     0.11164    88.26072   169.51625     0.11164
    17.10000    91.74089   190.49349     0.11152    88.25911   169.50651     0.11152
    17.20000    91.74251   190.50325     0.11140    88.25749   169.49675     0.11140
    17.30000    91.74414   190.51303     0.11128    88.25586   169.48697     0.11128
    17.40000    91.74577   190.52284     0.11116    88.25423   169.47716     0.11116
    17.50000    91.74740   190.53266     0.11103    88.25260   169.46734     0.11103
    17.60000    91.74903   190.54250     0.11091    88.25097   169.45750     0.11091
    17.70000    91.75067   190.55237     0.11079    88.24933   169.44763     0.11079
    17.80000    91.75231   190.56225     0.11067    88.24769   169.43775     0.11067
    17.90000    91.75395   190.57216     0.11055    88.24605   169.42784     0.11055
    18.00000    91.75560   190.58208     0.11042    88.24440   169.41792     0.11042
    18.10000    91.75725   190.59203     0.11030    88.24275   169.40797     0.11030
    18.20000    91.75891   190.60200     0.11018    88.24109   169.39800     0.11018
    18.30000    91.76056   190.61199     0.11006    88.23944   169.38801     0.11006
    18.40000    91.76223   190.62200     0.10994    88.23777   169.37800     0.10994
    18.50000    91.76389   190.63203     0.10981    88.23611   169.36797     0.10981
    18.60000    91.76556   190.64208     0.10969    88.23444   169.35792     0.10969
    18.70000    91.76723   190.65216     0.10957    88.23277   169.34784     0.10957
    18.80000    91.76890   190.66225     0.10945    88.23110   169.33775     0.10945
    18.90000    91.77058   190.67237     0.10933    88.22942   169.32763     0.10933
    19.00000    91.77227   190.68251     0.10920    88.22773   169.31749     0.10920
    19.10000    91.77395   190.69267     0.10908    88.22605   169.30733     0.10908
    19.20000    91.77564   190.70285     0.10896    88.22436   169.29715     0.10896
    19.30000    91.77733   190.71305     0.10884    88.22267   169.28695     0.10884
    19.40000    91.77903   190.72327     0.10872    88.22097   169.27673     0.10872
    19.50000    91.78073   190.73352     0.10859    88.21927   169.26648     0.10859
    19.60000    91.78243   190.74379     0.10847    88.21757   169.25621     0.10847
    19.70000    91.78414   190.75408     0.10835    88.21586   169.24592     0.10835
    19.80000    91.78585   190.76439     0.10823    88.21415   169.23561     0.10823
    19.90000    91.78756   190.77473     0.10811    88.21244   169.22527     0.10811
    20.00000    91.78928   190.78508     0.10799    88.21072   169.21492     0.10799
    20.10000    91.79100   190.79546     0.10786    88.20900   169.20454     0.10786
    20.20000    91.79272   190.80586     0.10774    88.20728   169.19414     0.10774
    20.30000    91.79445   190.81629     0.10762    88.20555   169.18371     0.10762
    20.40000    91.79618   190.82673     0.10750    88.20382   169.17327     0.10750
    20.50000    91.79792   190.83720     0.10738    88.20208   169.16280     0.10738
    20.60000    91.79966   190.84769     0.10725    88.20034   169.15231     0.10725
    20.70000    91.80140   190.85820     0.10713    88.19860   169.14180     0.10713
    20.80000    91.80315   190.86874     0.10701    88.19685   169.13126     0.10701
    20.90000    91.80490   190.87930     0.10689    88.19510   169.12070     0.10689
    21.00000    91.80665   190.88988     0.10677    88.19335   169.11012     0.10677
    21.10000    91.80841   190.90049     0.10665    88.19159   169.09951     0.10665
    21.20000    91.81017   190.91112     0.10652    88.18983   169.08888     0.10652
    21.30000    91.81194   190.92177     0.10640    88.18806   169.07823     0.10640
    21.40000    91.81371   190.93244     0.10628    88.18629   169.06756     0.10628
    21.50000    91.81548   190.94314     0.10616    88.18452   169.05686     0.10616
    21.60000    91.81726   190.95386     0.10604    88.18274   169.04614     0.10604
    21.70000    91.81904   190.96461     0.10592    88.18096   169.03539     0.10592
    21.80000    91.82082   190.97537     0.10580    88.17918   169.02463     0.10580
    21.90000    91.82261   190.98617     0.10567    88.17739   169.01383     0.10567
    22.00000    91.82440   190.99698     0.10555    88.17560   169.00302     0.10555
    22.10000    91.82619   191.00782     0.10543    88.17381   168.99218     0.10543
    22.20000    91.82799   191.01868     0.10531    88.17201   168.98132     0.10531
    22.30000    91.82980   191.02957     0.10519    88.17020   168.97043     0.10519
    22.40000    91.83160   191.04048     0.10507    88.16840   168.95952     0.10507
    22.50000    91.83342   191.05142     0.10495    88.16658   168.94858     0.10495
    22.60000    91.83523   191.06237     0.10482    88.16477   168.93763     0.10482
    22.70000    91.83705   191.07336     0.10470    88.16295   168.92664     0.10470
    22.80000    91.83887   191.08437     0.10458    88.16113   168.91563     0.10458
    22.90000    91.84070   191.09540     0.10446    88.15930   168.90460     0.10446
    23.00000    91.84253   191.10645     0.10434    88.15747   168.89355     0.10434
    23.10000    91.84437   191.11754     0.10422    88.15563   168.88246     0.10422
    23.20000    91.84620   191.12864     0.10410    88.15380   168.87136     0.10410
    23.30000    91.84805   191.13977     0.10397    88.15195   168.86023     0.10397
    23.40000    91.84989   191.15093     0.10385    88.15011   168.84907     0.10385
    23.50000    91.85174   191.16211     0.10373    88.14826   168.83789     0.10373
    23.60000    91.85360   191.17331     0.10361    88.14640   168.82669     0.10361
    23.70000    91.85546   191.18454     0.10349    88.14454   168.81546     0.10349
    23.80000    91.85732   191.19580     0.10337    88.14268   168.80420     0.10337
    23.90000    91.85919   191.20708     0.10325    88.14081   168.79292     0.10325
    24.00000    91.86106   191.21838     0.10313    88.13894   168.78162     0.10313
    24.10000    91.86293   191.22972     0.10300    88.13707   168.77028     0.10300
    24.20000    91.86481   191.24107     0.10288    88.13519   168.75893     0.10288
    24.30000    91.86670   191.25245     0.10276    88.13330   168.74755     0.10276
    24.40000    91.86858   191.26386     0.10264    88.13142   168.73614     0.10264
    24.50000    91.87048   191.27530     0.10252    88.12952   168.72470     0.10252
    24.60000    91.87237   191.28676     0.10240    88.12763   168.71324     0.10240
    24.70000    91.87427   191.29824     0.10228    88.12573   168.70176     0.10228
    24.80000    91.87618   191.30975     0.10216    88.12382   168.69025     0.10216
    24.90000    91.87808   191.32129     0.10203    88.12192   168.67871     0.10203
    25.00000    91.88000   191.33285     0.10191    88.12000   168.66715     0.10191
    25.10000    91.88191   191.34444     0.10179    88.11809   168.65556     0.10179
    25.20000    91.88384   191.35606     0.10167    88.11616   168.64394     0.10167
    25.30000    91.88576   191.36770     0.10155    88.11424   168.63230     0.10155
    25.40000    91.88769   191.37937     0.10143    88.11231   168.62063     0.10143
    25.50000    91.88963   191.39107     0.10131    88.11037   168.60893     0.10131
    25.60000    91.89156   191.40279     0.10119    88.10844   168.59721     0.10119
    25.70000    91.89351   191.41454     0.10107    88.10649   168.58546     0.10107
    25.80000    91.89545   191.42632     0.10095    88.10455   168.57368     0.10095
    25.90000    91.89740   191.43812     0.10082    88.10260   168.56188     0.10082
    26.00000    91.89936   191.44995     0.10070    88.10064   168.55005     0.10070
    26.10000    91.90132   191.46181     0.10058    88.09868   168.53819     0.10058
    26.20000    91.90329   191.47369     0.10046    88.09671   168.52631     0.10046
    26.30000    91.90525   191.48561     0.10034    88.09475   168.51439     0.10034
    26.40000    91.90723   191.49755     0.10022    88.09277   168.50245     0.10022
    26.50000    91.90921   191.50951     0.10010    88.09079   168.49049     0.10010
    26.60000    91.91119   191.52151     0.09998    88.08881   168.47849     0.09998
    26.70000    91.91318   191.53353     0.09986    88.08682   168.46647     0.09986
    26.80000    91.91517   191.54558     0.09974    88.08483   168.45442     0.09974
    26.90000    91.91716   191.55766     0.09962    88.08284   168.44234     0.09962
    27.00000    91.91916   191.56977     0.09950    88.08084   168.43023     0.09950
    27.10000    91.92117   191.58190     0.09937    88.07883   168.41810     0.09937
    27.20000    91.92318   191.59407     0.09925    88.07682   168.40593     0.09925
    27.30000    91.92519   191.60626     0.09913    88.07481   168.39374     0.09913
    27.40000    91.92721   191.61848     0.09901    88.07279   168.38152     0.09901
    27.50000    91.92923   191.63073     0.09889    88.07077   168.36927     0.09889
    27.60000    91.93126   191.64300     0.09877    88.06874   168.35700     0.09877
    27.70000    91.93329   191.65531     0.09865    88.06671   168.34469     0.09865
    27.80000    91.93533   191.66765     0.09853    88.06467   168.33235     0.09853
    27.90000    91.93737   191.68001     0.09841    88.06263   168.31999     0.09841
    28.00000    91.93942   191.69240     0.09829    88.06058   168.30760     0.09829
    28.10000    91.94147   191.70483     0.09817    88.05853   168.29517     0.09817
    28.20000    91.94353   191.71728     0.09805    88.05647   168.28272     0.09805
    28.30000    91.94559   191.72976     0.09793    88.05441   168.27024     0.09793
    28.40000    91.94765   191.74227     0.09781    88.05235   168.25773     0.09781
    28.50000    91.94972   191.75481     0.09768    88.05028   168.24519     0.09768
    28.60000    91.95180   191.76738     0.09756    88.04820   168.23262     0.09756
    28.70000    91.95388   191.77998     0.09744    88.04612   168.22002     0.09744
    28.80000    91.95596   191.79261     0.09732    88.04404   168.20739     0.09732
    28.90000    91.95805   191.80526     0.09720    88.04195   168.19474     0.09720
    29.00000    91.96015   191.81795     0.09708    88.03985   168.18205     0.09708
    29.10000    91.96224   191.83067     0.09696    88.03776   168.16933     0.09696
    29.20000    91.96435   191.84342     0.09684    88.03565   168.15658     0.09684
    29.30000    91.96646   191.85620     0.09672    88.03354   168.14380     0.09672
    29.40000    91.96857   191.86902     0.09660    88.03143   168.13098     0.09660
    29.50000    91.97069   191.88186     0.09648    88.02931   168.11814     0.09648
    29.60000    91.97281   191.89473     0.09636    88.02719   168.10527     0.09636
    29.70000    91.97494   191.90763     0.09624    88.02506   168.09237     0.09624
    29.80000    91.97708   191.92057     0.09612    88.02292   168.07943     0.09612
    29.90000    91.97921   191.93353     0.09600    88.02079   168.06647     0.09600
    30.00000    91.98136   191.94653     0.09588    88.01864   168.05347     0.09588
    30.10000    91.98351   191.95956     0.09576    88.01649   168.04044     0.09576
    30.20000    91.98566   191.97262     0.09564    88.01434   168.02738     0.09564
    30.30000    91.98782   191.98571     0.09552    88.01218   168.01429     0.09552
    30.40000    91.98998   191.99883     0.09540    88.01002   168.00117     0.09540
    30.50000    91.99215   192.01198     0.09528    88.00785   167.98802     0.09528
    30.60000    91.99433   192.02517     0.09516    88.00567   167.97483     0.09516
    30.70000    91.99651   192.03839     0.09504    88.00349   167.96161     0.09504
    30.80000    91.99869   192.05164     0.09492    88.00131   167.94836     0.09492
    30.90000    92.00088   192.06492     0.09480    87.99912   167.93508     0.09480
    31.00000    92.00307   192.07824     0.09467    87.99693   167.92176     0.09467
    31.10000    92.00527   192.09158     0.09455    87.99473   167.90842     0.09455
    31.20000    92.00748   192.10496     0.09443    87.99252   167.89504     0.09443
    31.30000    92.00969   192.11838     0.09431    87.99031   167.88162     0.09431
    31.40000    92.01191   192.13182     0.09419    87.98809   167.86818     0.09419
    31.50000    92.01413   192.14530     0.09407    87.98587   167.85470     0.09407
    31.60000    92.01635   192.15881     0.09395    87.98365   167.84119     0.09395
    31.70000    92.01858   192.17236     0.09383    87.98142   167.82764     0.09383
    31.80000    92.02082   192.18594     0.09371    87.97918   167.81406     0.09371
    31.90000    92.02306   192.19955     0.09359    87.97694   167.80045     0.09359
    32.00000    92.02531   192.21320     0.09347    87.97469   167.78680     0.09347
    32.10000    92.02757   192.22687     0.09335    87.97243   167.77313     0.09335
    32.20000    92.02982   192.24059     0.09323    87.97018   167.75941     0.09323
    32.30000    92.03209   192.25433     0.09311    87.96791   167.74567     0.09311
    32.40000    92.03436   192.26812     0.09299    87.96564   167.73188     0.09299
    32.50000    92.03663   192.28193     0.09287    87.96337   167.71807     0.09287
    32.60000    92.03891   192.29578     0.09275    87.96109   167.70422     0.09275
    32.70000    92.04120   192.30966     0.09263    87.95880   167.69034     0.09263
    32.80000    92.04349   192.32358     0.09251    87.95651   167.67642     0.09251
    32.90000    92.04579   192.33754     0.09239    87.95421   167.66246     0.09239
    33.00000    92.04809   192.35153     0.09227    87.95191   167.64847     0.09227
    33.10000    92.05040   192.36555     0.09215    87.94960   167.63445     0.09215
    33.20000    92.05271   192.37961     0.09203    87.94729   167.62039     0.09203
    33.30000    92.05503   192.39370     0.09191    87.94497   167.60630     0.09191
    33.40000    92.05736   192.40783     0.09179    87.94264   167.59217     0.09179
    33.50000    92.05969   192.42199     0.09167    87.94031   167.57801     0.09167
    33.60000    92.06203   192.43620     0.09155    87.93797   167.56380     0.09155
    33.70000    92.06437   192.45043     0.09143    87.93563   167.54957     0.09143
    33.80000    92.06672   192.46470     0.09131    87.93328   167.53530     0.09131
    33.90000    92.06907   192.47901     0.09119    87.93093   167.52099     0.09119
    34.00000    92.07143   192.49336     0.09108    87.92857   167.50664     0.09108
    34.10000    92.07380   192.50774     0.09096    87.92620   167.49226     0.09096
    34.20000    92.07617   192.52215     0.09084    87.92383   167.47785     0.09084
    34.30000    92.07855   192.53661     0.09072    87.92145   167.46339     0.09072
    34.40000    92.08093   192.55110     0.09060    87.91907   167.44890     0.09060
    34.50000    92.08332   192.56563     0.09048    87.91668   167.43437     0.09048
    34.60000    92.08571   192.58019     0.09036    87.91429   167.41981     0.09036
    34.70000    92.08811   192.59479     0.09024    87.91189   167.40521     0.09024
    34.80000    92.09052   192.60943     0.09012    87.90948   167.39057     0.09012
    34.90000    92.09293   192.62411     0.09000    87.90707   167.37589     0.09000
    35.00000    92.09535   192.63882     0.08988    87.90465   167.36118     0.08988
    35.10000    92.09778   192.65357     0.08976    87.90222   167.34643     0.08976
    35.20000    92.10021   192.66836     0.08964    87.89979   167.33164     0.08964
    35.30000    92.10265   192.68319     0.08952    87.89735   167.31681     0.08952
    35.40000    92.10509   192.69806     0.08940    87.89491   167.30194     0.08940
    35.50000    92.10754   192.71296     0.08928    87.89246   167.28704     0.08928
    35.60000    92.10999   192.72790     0.08916    87.89001   167.27210     0.08916
    35.70000    92.11246   192.74288     0.08904    87.88754   167.25712     0.08904
    35.80000    92.11492   192.75791     0.08892    87.88508   167.24209     0.08892
    35.90000    92.11740   192.77296     0.08880    87.88260   167.22704     0.08880
    36.00000    92.11988   192.78806     0.08868    87.88012   167.21194     0.08868
    36.10000    92.12237   192.80320     0.08856    87.87763   167.19680     0.08856
    36.20000    92.12486   192.81838     0.08844    87.87514   167.18162     0.08844
    36.30000    92.12736   192.83359     0.08832    87.87264   167.16641     0.08832
    36.40000    92.12986   192.84885     0.08821    87.87014   167.15115     0.08821
    36.50000    92.13237   192.86415     0.08809    87.86763   167.13585     0.08809
    36.60000    92.13489   192.87948     0.08797    87.86511   167.12052     0.08797
    36.70000    92.13742   192.89486     0.08785    87.86258   167.10514     0.08785
    36.80000    92.13995   192.91027     0.08773    87.86005   167.08973     0.08773
    36.90000    92.14249   192.92573     0.08761    87.85751   167.07427     0.08761
    37.00000    92.14503   192.94123     0.08749    87.85497   167.05877     0.08749
    37.10000    92.14758   192.95677     0.08737    87.85242   167.04323     0.08737
    37.20000    92.15014   192.97235     0.08725    87.84986   167.02765     0.08725
    37.30000    92.15270   192.98797     0.08713    87.84730   167.01203     0.08713
    37.40000    92.15527   193.00363     0.08701    87.84473   166.99637     0.08701
    37.50000    92.15785   193.01933     0.08689    87.84215   166.98067     0.08689
    37.60000    92.16043   193.03508     0.08677    87.83957   166.96492     0.08677
    37.70000    92.16302   193.05086     0.08665    87.83698   166.94914     0.08665
    37.80000    92.16562   193.06669     0.08654    87.83438   166.93331     0.08654
    37.90000    92.16822   193.08256     0.08642    87.83178   166.91744     0.08642
    38.00000    92.17083   193.09848     0.08630    87.82917   166.90152     0.08630
    38.10000    92.17345   193.11443     0.08618    87.82655   166.88557     0.08618
    38.20000    92.17607   193.13043     0.08606    87.82393   166.86957     0.08606
    38.30000    92.17871   193.14647     0.08594    87.82129   166.85353     0.08594
    38.40000    92.18134   193.16256     0.08582    87.81866   166.83744     0.08582
    38.50000    92.18399   193.17868     0.08570    87.81601   166.82132     0.08570
    38.60000    92.18664   193.19485     0.08558    87.81336   166.80515     0.08558
    38.70000    92.18930   193.21107     0.08546    87.81070   166.78893     0.08546
    38.80000    92.19196   193.22732     0.08534    87.80804   166.77268     0.08534
    38.90000    92.19463   193.24363     0.08523    87.80537   166.75637     0.08523
    39.00000    92.19731   193.25997     0.08511    87.80269   166.74003     0.08511
    39.10000    92.20000   193.27636     0.08499    87.80000   166.72364     0.08499
    39.20000    92.20269   193.29279     0.08487    87.79731   166.70721     0.08487
    39.30000    92.20539   193.30927     0.08475    87.79461   166.69073     0.08475
    39.40000    92.20810   193.32580     0.08463    87.79190   166.67420     0.08463
    39.50000    92.21082   193.34236     0.08451    87.78918   166.65764     0.08451
    39.60000    92.21354   193.35898     0.08439    87.78646   166.64102     0.08439
    39.70000    92.21627   193.37564     0.08427    87.78373   166.62436     0.08427
    39.80000    92.21900   193.39234     0.08416    87.78100   166.60766     0.08416
    39.90000    92.22175   193.40909     0.08404    87.77825   166.59091     0.08404
    40.00000    92.22450   193.42589     0.08392    87.77550   166.57411     0.08392
