 # applied field (T), theta (degree), phi (degree), abs for RE 3-4
     0.00000     1.85802   135.00000     4.02021     1.85802    45.00000     4.02021
     0.10000     1.45174   116.80112     4.01748     2.38126    34.03229     4.02105
     0.20000     1.27982    92.02705     4.01488     2.91358    27.60401     4.02174
     0.30000     1.40282    63.98794     4.01198     3.51755    22.89874     4.02241
     0.40000     1.78119    44.22135     4.00899     4.13776    19.58866     4.02300
     0.50000     2.25057    32.97978     4.00616     4.71928    17.31136     4.02346
     0.60000     2.82179    25.30916     4.00301     5.35519    15.40606     4.02389
     0.70000     3.42726    20.27077     3.99977     5.99551    13.90612     4.02422
     0.80000     4.00391    16.98722     3.99671     6.58964    12.78010     4.02446
     0.90000     4.64041    14.35542     3.99330     7.23532    11.76914     4.02464
     1.00000     5.28554    12.35675     3.98981     7.88287    10.92341     4.02474
     1.10000     5.93702    10.79015     3.98623     8.53197    10.20554     4.02475
     1.20000     6.59347     9.53039     3.98256     9.18238     9.58856     4.02469
     1.30000     7.25402     8.49587     3.97881     9.83395     9.05257     4.02454
     1.40000     7.91813     7.63128     3.97497    10.48660     8.58255     4.02432
     1.50000     8.63664     6.84634     3.97074    11.19036     8.13711     4.02399
     1.60000     9.30711     6.22336     3.96673    11.84510     7.77009     4.02360
     1.70000     9.98038     5.68188     3.96264    12.50084     7.44088     4.02314
     1.80000    10.70822     5.17275     3.95815    13.20789     7.12231     4.02256
     1.90000    11.43912     4.72619     3.95357    13.91613     6.83541     4.02190
     2.00000    12.12078     4.35774     3.94923    14.57510     6.59326     4.02121
     2.10000    12.85755     4.00283     3.94449    15.28573     6.35527     4.02039
     2.20000    13.59739     3.68451     3.93967    15.99767     6.13776     4.01949
     2.30000    14.39326     3.37787     3.93441    16.76175     5.92458     4.01844
     2.40000    15.13954     3.11894     3.92944    17.47655     5.74173     4.01739
     2.50000    15.94242     2.86670     3.92404    18.24381     5.56110     4.01618
     2.60000    16.69534     2.65150     3.91893    18.96171     5.40504     4.01498
     2.70000    17.55939     2.42647     3.91303    19.78364     5.23996     4.01352
     2.80000    18.37363     2.23301     3.90744    20.55634     5.09649     4.01208
     2.90000    19.19180     2.05440     3.90181    21.33096     4.96279     4.01056
     3.00000    20.06871     1.87833     3.89575    22.15923     4.82986     4.00887
     3.10000    20.95025     1.71536     3.88966    22.98983     4.70584     4.00711
     3.20000    21.89186     1.55489     3.88317    23.87478     4.58284     4.00516
     3.30000    22.78322     1.41437     3.87704    24.71040     4.47445     4.00326
     3.40000    23.79140     1.26718     3.87015    25.65311     4.36028     4.00104
     3.50000    24.74950     1.13750     3.86366    26.54661     4.25918     3.99888
     3.60000    25.76990     1.00904     3.85682    27.49572     4.15861     3.99653
     3.70000    26.85373     0.88224     3.84967    28.50106     4.05897     3.99398
     3.80000    27.94472     0.76347     3.84259    29.51023     3.96534     3.99137
     3.90000    29.10071     0.64622     3.83527    30.57654     3.87266     3.98856
     4.00000    30.32291     0.53075     3.82773    31.70069     3.78120     3.98555
     4.10000    31.55383     0.42226     3.82039    32.82965     3.69513     3.98249
     4.20000    32.85250     0.31532     3.81294    34.01742     3.61019     3.97923
     4.30000    34.22005     0.21010     3.80546    35.26474     3.52655     3.97579
     4.40000    35.71756     0.10255     3.79772    36.62687     3.44101     3.97201
     4.50000    37.28694   359.99743     3.79017    38.05060     3.35738     3.96805
     4.60000    38.92905   359.89475     3.78292    39.53673     3.27565     3.96393
     4.70000    40.76732   359.78760     3.77562    41.19682     3.19033     3.95935
     4.80000    42.74299   359.68048     3.76878    42.97779     3.10495     3.95448
     4.90000    44.91957   359.57088     3.76250    44.93745     3.01741     3.94920
     5.00000    47.36158   359.45703     3.75703    47.13506     2.92617     3.94339
     5.10000    50.19700   359.33526     3.75276    49.68831     2.82798     3.93682
     5.20000    53.49096   359.20579     3.75054    52.66102     2.72255     3.92945
     5.30000    57.62390   359.05863     3.75168    56.40826     2.60069     3.92060
     5.40000    63.35292   358.87740     3.75965    61.64939     2.44619     3.90904
     5.50000    73.86371   358.59538     3.78897    71.45868     2.19026     3.88975
     5.60000    91.43145   358.20942     3.86193    88.56855     1.79058     3.86193
     5.70000    91.43136   358.20952     3.86203    88.56864     1.79048     3.86203
     5.80000    91.43127   358.20963     3.86213    88.56873     1.79037     3.86213
     5.90000    91.43118   358.20973     3.86223    88.56882     1.79027     3.86223
     6.00000    91.43109   358.20983     3.86234    88.56891     1.79017     3.86234
     6.10000    91.43100   358.20993     3.86244    88.56900     1.79007     3.86244
     6.20000    91.43091   358.21003     3.86254    88.56909     1.78997     3.86254
     6.30000    91.43082   358.21014     3.86264    88.56918     1.78986     3.86264
     6.40000    91.43073   358.21024     3.86274    88.56927     1.78976     3.86274
     6.50000    91.43064   358.21034     3.86284    88.56936     1.78966     3.86284
     6.60000    91.43055   358.21044     3.86294    88.56945     1.78956     3.86294
     6.70000    91.43046   358.21054     3.86305    88.56954     1.78946     3.86305
     6.80000    91.43037   358.21065     3.86315    88.56963     1.78935     3.86315
     6.90000    91.43028   358.21075     3.86325    88.56972     1.78925     3.86325
     7.00000    91.43019   358.21085     3.86335    88.56981     1.78915     3.86335
     7.10000    91.43010   358.21095     3.86345    88.56990     1.78905     3.86345
     7.20000    91.43001   358.21105     3.86355    88.56999     1.78895     3.86355
     7.30000    91.42992   358.21115     3.86365    88.57008     1.78885     3.86365
     7.40000    91.42984   358.21126     3.86375    88.57016     1.78874     3.86375
     7.50000    91.42975   358.21136     3.86386    88.57025     1.78864     3.86386
     7.60000    91.42966   358.21146     3.86396    88.57034     1.78854     3.86396
     7.70000    91.42957   358.21156     3.86406    88.57043     1.78844     3.86406
     7.80000    91.42948   358.21166     3.86416    88.57052     1.78834     3.86416
     7.90000    91.42939   358.21176     3.86426    88.57061     1.78824     3.86426
     8.00000    91.42930   358.21187     3.86436    88.57070     1.78813     3.86436
     8.10000    91.42921   358.21197     3.86446    88.57079     1.78803     3.86446
     8.20000    91.42912   358.21207     3.86456    88.57088     1.78793     3.86456
     8.30000    91.42903   358.21217     3.86466    88.57097     1.78783     3.86466
     8.40000    91.42894   358.21227     3.86476    88.57106     1.78773     3.86476
     8.50000    91.42885   358.21237     3.86487    88.57115     1.78763     3.86487
     8.60000    91.42876   358.21248     3.86497    88.57124     1.78752     3.86497
     8.70000    91.42867   358.21258     3.86507    88.57133     1.78742     3.86507
     8.80000    91.42858   358.21268     3.86517    88.57142     1.78732     3.86517
     8.90000    91.42849   358.21278     3.86527    88.57151     1.78722     3.86527
     9.00000    91.42840   358.21288     3.86537    88.57160     1.78712     3.86537
     9.10000    91.42831   358.21298     3.86547    88.57169     1.78702     3.86547
     9.20000    91.42822   358.21308     3.86557    88.57178     1.78692     3.86557
     9.30000    91.42813   358.21319     3.86567    88.57187     1.78681     3.86567
     9.40000    91.42805   358.21329     3.86577    88.57195     1.78671     3.86577
     9.50000    91.42796   358.21339     3.86587    88.57204     1.78661     3.86587
     9.60000    91.42787   358.21349     3.86597    88.57213     1.78651     3.86597
     9.70000    91.42778   358.21359     3.86607    88.57222     1.78641     3.86607
     9.80000    91.42769   358.21369     3.86617    88.57231     1.78631     3.86617
     9.90000    91.42760   358.21379     3.86627    88.57240     1.78621     3.86627
    10.00000    91.42751   358.21389     3.86637    88.57249     1.78611     3.86637
    10.10000    91.42742   358.21400     3.86647    88.57258     1.78600     3.86647
    10.20000    91.42733   358.21410     3.86657    88.57267     1.78590     3.86657
    10.30000    91.42724   358.21420     3.86667    88.57276     1.78580     3.86667
    10.40000    91.42715   358.21430     3.86677    88.57285     1.78570     3.86677
    10.50000    91.42706   358.21440     3.86687    88.57294     1.78560     3.86687
    10.60000    91.42697   358.21450     3.86697    88.57303     1.78550     3.86697
    10.70000    91.42689   358.21460     3.86707    88.57311     1.78540     3.86707
    10.80000    91.42680   358.21470     3.86717    88.57320     1.78530     3.86717
    10.90000    91.42671   358.21481     3.86727    88.57329     1.78519     3.86727
    11.00000    91.42662   358.21491     3.86737    88.57338     1.78509     3.86737
    11.10000    91.42653   358.21501     3.86747    88.57347     1.78499     3.86747
    11.20000    91.42644   358.21511     3.86757    88.57356     1.78489     3.86757
    11.30000    91.42635   358.21521     3.86767    88.57365     1.78479     3.86767
    11.40000    91.42626   358.21531     3.86777    88.57374     1.78469     3.86777
    11.50000    91.42617   358.21541     3.86787    88.57383     1.78459     3.86787
    11.60000    91.42608   358.21551     3.86797    88.57392     1.78449     3.86797
    11.70000    91.42600   358.21561     3.86807    88.57400     1.78439     3.86807
    11.80000    91.42591   358.21571     3.86817    88.57409     1.78429     3.86817
    11.90000    91.42582   358.21582     3.86827    88.57418     1.78418     3.86827
    12.00000    91.42573   358.21592     3.86837    88.57427     1.78408     3.86837
    12.10000    91.42564   358.21602     3.86847    88.57436     1.78398     3.86847
    12.20000    91.42555   358.21612     3.86857    88.57445     1.78388     3.86857
    12.30000    91.42546   358.21622     3.86867    88.57454     1.78378     3.86867
    12.40000    91.42537   358.21632     3.86877    88.57463     1.78368     3.86877
    12.50000    91.42529   358.21642     3.86887    88.57471     1.78358     3.86887
    12.60000    91.42520   358.21652     3.86897    88.57480     1.78348     3.86897
    12.70000    91.42511   358.21662     3.86907    88.57489     1.78338     3.86907
    12.80000    91.42502   358.21672     3.86917    88.57498     1.78328     3.86917
    12.90000    91.42493   358.21682     3.86927    88.57507     1.78318     3.86927
    13.00000    91.42484   358.21692     3.86937    88.57516     1.78308     3.86937
    13.10000    91.42475   358.21702     3.86947    88.57525     1.78298     3.86947
    13.20000    91.42466   358.21712     3.86957    88.57534     1.78288     3.86957
    13.30000    91.42458   358.21723     3.86966    88.57542     1.78277     3.86966
    13.40000    91.42449   358.21733     3.86976    88.57551     1.78267     3.86976
    13.50000    91.42440   358.21743     3.86986    88.57560     1.78257     3.86986
    13.60000    91.42431   358.21753     3.86996    88.57569     1.78247     3.86996
    13.70000    91.42422   358.21763     3.87006    88.57578     1.78237     3.87006
    13.80000    91.42413   358.21773     3.87016    88.57587     1.78227     3.87016
    13.90000    91.42405   358.21783     3.87026    88.57595     1.78217     3.87026
    14.00000    91.42396   358.21793     3.87036    88.57604     1.78207     3.87036
    14.10000    91.42387   358.21803     3.87046    88.57613     1.78197     3.87046
    14.20000    91.42378   358.21813     3.87056    88.57622     1.78187     3.87056
    14.30000    91.42369   358.21823     3.87066    88.57631     1.78177     3.87066
    14.40000    91.42360   358.21833     3.87075    88.57640     1.78167     3.87075
    14.50000    91.42351   358.21843     3.87085    88.57649     1.78157     3.87085
    14.60000    91.42343   358.21853     3.87095    88.57657     1.78147     3.87095
    14.70000    91.42334   358.21863     3.87105    88.57666     1.78137     3.87105
    14.80000    91.42325   358.21873     3.87115    88.57675     1.78127     3.87115
    14.90000    91.42316   358.21883     3.87125    88.57684     1.78117     3.87125
    15.00000    91.42307   358.21893     3.87135    88.57693     1.78107     3.87135
    15.10000    91.42299   358.21903     3.87145    88.57701     1.78097     3.87145
    15.20000    91.42290   358.21913     3.87154    88.57710     1.78087     3.87154
    15.30000    91.42281   358.21923     3.87164    88.57719     1.78077     3.87164
    15.40000    91.42272   358.21933     3.87174    88.57728     1.78067     3.87174
    15.50000    91.42263   358.21943     3.87184    88.57737     1.78057     3.87184
    15.60000    91.42254   358.21953     3.87194    88.57746     1.78047     3.87194
    15.70000    91.42246   358.21963     3.87204    88.57754     1.78037     3.87204
    15.80000    91.42237   358.21973     3.87213    88.57763     1.78027     3.87213
    15.90000    91.42228   358.21983     3.87223    88.57772     1.78017     3.87223
    16.00000    91.42219   358.21993     3.87233    88.57781     1.78007     3.87233
    16.10000    91.42210   358.22003     3.87243    88.57790     1.77997     3.87243
    16.20000    91.42202   358.22013     3.87253    88.57798     1.77987     3.87253
    16.30000    91.42193   358.22023     3.87263    88.57807     1.77977     3.87263
    16.40000    91.42184   358.22033     3.87272    88.57816     1.77967     3.87272
    16.50000    91.42175   358.22043     3.87282    88.57825     1.77957     3.87282
    16.60000    91.42166   358.22053     3.87292    88.57834     1.77947     3.87292
    16.70000    91.42158   358.22063     3.87302    88.57842     1.77937     3.87302
    16.80000    91.42149   358.22073     3.87312    88.57851     1.77927     3.87312
    16.90000    91.42140   358.22083     3.87322    88.57860     1.77917     3.87322
    17.00000    91.42131   358.22093     3.87331    88.57869     1.77907     3.87331
    17.10000    91.42122   358.22103     3.87341    88.57878     1.77897     3.87341
    17.20000    91.42114   358.22113     3.87351    88.57886     1.77887     3.87351
    17.30000    91.42105   358.22123     3.87361    88.57895     1.77877     3.87361
    17.40000    91.42096   358.22133     3.87370    88.57904     1.77867     3.87370
    17.50000    91.42087   358.22143     3.87380    88.57913     1.77857     3.87380
    17.60000    91.42078   358.22153     3.87390    88.57922     1.77847     3.87390
    17.70000    91.42070   358.22163     3.87400    88.57930     1.77837     3.87400
    17.80000    91.42061   358.22173     3.87410    88.57939     1.77827     3.87410
    17.90000    91.42052   358.22183     3.87419    88.57948     1.77817     3.87419
    18.00000    91.42043   358.22193     3.87429    88.57957     1.77807     3.87429
    18.10000    91.42035   358.22203     3.87439    88.57965     1.77797     3.87439
    18.20000    91.42026   358.22213     3.87449    88.57974     1.77787     3.87449
    18.30000    91.42017   358.22223     3.87458    88.57983     1.77777     3.87458
    18.40000    91.42008   358.22233     3.87468    88.57992     1.77767     3.87468
    18.50000    91.42000   358.22243     3.87478    88.58000     1.77757     3.87478
    18.60000    91.41991   358.22253     3.87488    88.58009     1.77747     3.87488
    18.70000    91.41982   358.22263     3.87497    88.58018     1.77737     3.87497
    18.80000    91.41973   358.22273     3.87507    88.58027     1.77727     3.87507
    18.90000    91.41965   358.22283     3.87517    88.58035     1.77717     3.87517
    19.00000    91.41956   358.22293     3.87527    88.58044     1.77707     3.87527
    19.10000    91.41947   358.22303     3.87536    88.58053     1.77697     3.87536
    19.20000    91.41938   358.22313     3.87546    88.58062     1.77687     3.87546
    19.30000    91.41930   358.22323     3.87556    88.58070     1.77677     3.87556
    19.40000    91.41921   358.22333     3.87566    88.58079     1.77667     3.87566
    19.50000    91.41912   358.22343     3.87575    88.58088     1.77657     3.87575
    19.60000    91.41903   358.22352     3.87585    88.58097     1.77648     3.87585
    19.70000    91.41895   358.22362     3.87595    88.58105     1.77638     3.87595
    19.80000    91.41886   358.22372     3.87604    88.58114     1.77628     3.87604
    19.90000    91.41877   358.22382     3.87614    88.58123     1.77618     3.87614
    20.00000    91.41868   358.22392     3.87624    88.58132     1.77608     3.87624
    20.10000    91.41860   358.22402     3.87634    88.58140     1.77598     3.87634
    20.20000    91.41851   358.22412     3.87643    88.58149     1.77588     3.87643
    20.30000    91.41842   358.22422     3.87653    88.58158     1.77578     3.87653
    20.40000    91.41833   358.22432     3.87663    88.58167     1.77568     3.87663
    20.50000    91.41825   358.22442     3.87672    88.58175     1.77558     3.87672
    20.60000    91.41816   358.22452     3.87682    88.58184     1.77548     3.87682
    20.70000    91.41807   358.22462     3.87692    88.58193     1.77538     3.87692
    20.80000    91.41799   358.22472     3.87701    88.58201     1.77528     3.87701
    20.90000    91.41790   358.22481     3.87711    88.58210     1.77519     3.87711
    21.00000    91.41781   358.22491     3.87721    88.58219     1.77509     3.87721
    21.10000    91.41772   358.22501     3.87730    88.58228     1.77499     3.87730
    21.20000    91.41764   358.22511     3.87740    88.58236     1.77489     3.87740
    21.30000    91.41755   358.22521     3.87750    88.58245     1.77479     3.87750
    21.40000    91.41746   358.22531     3.87759    88.58254     1.77469     3.87759
    21.50000    91.41738   358.22541     3.87769    88.58262     1.77459     3.87769
    21.60000    91.41729   358.22551     3.87779    88.58271     1.77449     3.87779
    21.70000    91.41720   358.22561     3.87788    88.58280     1.77439     3.87788
    21.80000    91.41711   358.22571     3.87798    88.58289     1.77429     3.87798
    21.90000    91.41703   358.22581     3.87808    88.58297     1.77419     3.87808
    22.00000    91.41694   358.22590     3.87817    88.58306     1.77410     3.87817
    22.10000    91.41685   358.22600     3.87827    88.58315     1.77400     3.87827
    22.20000    91.41677   358.22610     3.87837    88.58323     1.77390     3.87837
    22.30000    91.41668   358.22620     3.87846    88.58332     1.77380     3.87846
    22.40000    91.41659   358.22630     3.87856    88.58341     1.77370     3.87856
    22.50000    91.41651   358.22640     3.87865    88.58349     1.77360     3.87865
    22.60000    91.41642   358.22650     3.87875    88.58358     1.77350     3.87875
    22.70000    91.41633   358.22660     3.87885    88.58367     1.77340     3.87885
    22.80000    91.41625   358.22669     3.87894    88.58375     1.77331     3.87894
    22.90000    91.41616   358.22679     3.87904    88.58384     1.77321     3.87904
    23.00000    91.41607   358.22689     3.87914    88.58393     1.77311     3.87914
    23.10000    91.41598   358.22699     3.87923    88.58402     1.77301     3.87923
    23.20000    91.41590   358.22709     3.87933    88.58410     1.77291     3.87933
    23.30000    91.41581   358.22719     3.87942    88.58419     1.77281     3.87942
    23.40000    91.41572   358.22729     3.87952    88.58428     1.77271     3.87952
    23.50000    91.41564   358.22739     3.87962    88.58436     1.77261     3.87962
    23.60000    91.41555   358.22748     3.87971    88.58445     1.77252     3.87971
    23.70000    91.41546   358.22758     3.87981    88.58454     1.77242     3.87981
    23.80000    91.41538   358.22768     3.87990    88.58462     1.77232     3.87990
    23.90000    91.41529   358.22778     3.88000    88.58471     1.77222     3.88000
    24.00000    91.41520   358.22788     3.88010    88.58480     1.77212     3.88010
    24.10000    91.41512   358.22798     3.88019    88.58488     1.77202     3.88019
    24.20000    91.41503   358.22808     3.88029    88.58497     1.77192     3.88029
    24.30000    91.41495   358.22817     3.88038    88.58505     1.77183     3.88038
    24.40000    91.41486   358.22827     3.88048    88.58514     1.77173     3.88048
    24.50000    91.41477   358.22837     3.88057    88.58523     1.77163     3.88057
    24.60000    91.41469   358.22847     3.88067    88.58531     1.77153     3.88067
    24.70000    91.41460   358.22857     3.88076    88.58540     1.77143     3.88076
    24.80000    91.41451   358.22867     3.88086    88.58549     1.77133     3.88086
    24.90000    91.41443   358.22876     3.88096    88.58557     1.77124     3.88096
    25.00000    91.41434   358.22886     3.88105    88.58566     1.77114     3.88105
    25.10000    91.41425   358.22896     3.88115    88.58575     1.77104     3.88115
    25.20000    91.41417   358.22906     3.88124    88.58583     1.77094     3.88124
    25.30000    91.41408   358.22916     3.88134    88.58592     1.77084     3.88134
    25.40000    91.41399   358.22926     3.88143    88.58601     1.77074     3.88143
    25.50000    91.41391   358.22935     3.88153    88.58609     1.77065     3.88153
    25.60000    91.41382   358.22945     3.88162    88.58618     1.77055     3.88162
    25.70000    91.41374   358.22955     3.88172    88.58626     1.77045     3.88172
    25.80000    91.41365   358.22965     3.88181    88.58635     1.77035     3.88181
    25.90000    91.41356   358.22975     3.88191    88.58644     1.77025     3.88191
    26.00000    91.41348   358.22984     3.88200    88.58652     1.77016     3.88200
    26.10000    91.41339   358.22994     3.88210    88.58661     1.77006     3.88210
    26.20000    91.41330   358.23004     3.88219    88.58670     1.76996     3.88219
    26.30000    91.41322   358.23014     3.88229    88.58678     1.76986     3.88229
    26.40000    91.41313   358.23024     3.88238    88.58687     1.76976     3.88238
    26.50000    91.41305   358.23034     3.88248    88.58695     1.76966     3.88248
    26.60000    91.41296   358.23043     3.88257    88.58704     1.76957     3.88257
    26.70000    91.41287   358.23053     3.88267    88.58713     1.76947     3.88267
    26.80000    91.41279   358.23063     3.88276    88.58721     1.76937     3.88276
    26.90000    91.41270   358.23073     3.88286    88.58730     1.76927     3.88286
    27.00000    91.41262   358.23083     3.88295    88.58738     1.76917     3.88295
    27.10000    91.41253   358.23092     3.88305    88.58747     1.76908     3.88305
    27.20000    91.41244   358.23102     3.88314    88.58756     1.76898     3.88314
    27.30000    91.41236   358.23112     3.88324    88.58764     1.76888     3.88324
    27.40000    91.41227   358.23122     3.88333    88.58773     1.76878     3.88333
    27.50000    91.41219   358.23131     3.88343    88.58781     1.76869     3.88343
    27.60000    91.41210   358.23141     3.88352    88.58790     1.76859     3.88352
    27.70000    91.41201   358.23151     3.88362    88.58799     1.76849     3.88362
    27.80000    91.41193   358.23161     3.88371    88.58807     1.76839     3.88371
    27.90000    91.41184   358.23171     3.88381    88.58816     1.76829     3.88381
    28.00000    91.41176   358.23180     3.88390    88.58824     1.76820     3.88390
    28.10000    91.41167   358.23190     3.88399    88.58833     1.76810     3.88399
    28.20000    91.41158   358.23200     3.88409    88.58842     1.76800     3.88409
    28.30000    91.41150   358.23210     3.88418    88.58850     1.76790     3.88418
    28.40000    91.41141   358.23219     3.88428    88.58859     1.76781     3.88428
    28.50000    91.41133   358.23229     3.88437    88.58867     1.76771     3.88437
    28.60000    91.41124   358.23239     3.88447    88.58876     1.76761     3.88447
    28.70000    91.41116   358.23249     3.88456    88.58884     1.76751     3.88456
    28.80000    91.41107   358.23258     3.88466    88.58893     1.76742     3.88466
    28.90000    91.41098   358.23268     3.88475    88.58902     1.76732     3.88475
    29.00000    91.41090   358.23278     3.88484    88.58910     1.76722     3.88484
    29.10000    91.41081   358.23288     3.88494    88.58919     1.76712     3.88494
    29.20000    91.41073   358.23298     3.88503    88.58927     1.76702     3.88503
    29.30000    91.41064   358.23307     3.88513    88.58936     1.76693     3.88513
    29.40000    91.41056   358.23317     3.88522    88.58944     1.76683     3.88522
    29.50000    91.41047   358.23327     3.88531    88.58953     1.76673     3.88531
    29.60000    91.41038   358.23337     3.88541    88.58962     1.76663     3.88541
    29.70000    91.41030   358.23346     3.88550    88.58970     1.76654     3.88550
    29.80000    91.41021   358.23356     3.88560    88.58979     1.76644     3.88560
    29.90000    91.41013   358.23366     3.88569    88.58987     1.76634     3.88569
    30.00000    91.41004   358.23375     3.88578    88.58996     1.76625     3.88578
    30.10000    91.40996   358.23385     3.88588    88.59004     1.76615     3.88588
    30.20000    91.40987   358.23395     3.88597    88.59013     1.76605     3.88597
    30.30000    91.40979   358.23405     3.88607    88.59021     1.76595     3.88607
    30.40000    91.40970   358.23414     3.88616    88.59030     1.76586     3.88616
    30.50000    91.40962   358.23424     3.88625    88.59038     1.76576     3.88625
    30.60000    91.40953   358.23434     3.88635    88.59047     1.76566     3.88635
    30.70000    91.40944   358.23444     3.88644    88.59056     1.76556     3.88644
    30.80000    91.40936   358.23453     3.88653    88.59064     1.76547     3.88653
    30.90000    91.40927   358.23463     3.88663    88.59073     1.76537     3.88663
    31.00000    91.40919   358.23473     3.88672    88.59081     1.76527     3.88672
    31.10000    91.40910   358.23482     3.88681    88.59090     1.76518     3.88681
    31.20000    91.40902   358.23492     3.88691    88.59098     1.76508     3.88691
    31.30000    91.40893   358.23502     3.88700    88.59107     1.76498     3.88700
    31.40000    91.40885   358.23512     3.88709    88.59115     1.76488     3.88709
    31.50000    91.40876   358.23521     3.88719    88.59124     1.76479     3.88719
    31.60000    91.40868   358.23531     3.88728    88.59132     1.76469     3.88728
    31.70000    91.40859   358.23541     3.88738    88.59141     1.76459     3.88738
    31.80000    91.40851   358.23550     3.88747    88.59149     1.76450     3.88747
    31.90000    91.40842   358.23560     3.88756    88.59158     1.76440     3.88756
    32.00000    91.40834   358.23570     3.88765    88.59166     1.76430     3.88765
    32.10000    91.40825   358.23579     3.88775    88.59175     1.76421     3.88775
    32.20000    91.40817   358.23589     3.88784    88.59183     1.76411     3.88784
    32.30000    91.40808   358.23599     3.88793    88.59192     1.76401     3.88793
    32.40000    91.40800   358.23609     3.88803    88.59200     1.76391     3.88803
    32.50000    91.40791   358.23618     3.88812    88.59209     1.76382     3.88812
    32.60000    91.40783   358.23628     3.88821    88.59217     1.76372     3.88821
    32.70000    91.40774   358.23638     3.88831    88.59226     1.76362     3.88831
    32.80000    91.40766   358.23647     3.88840    88.59234     1.76353     3.88840
    32.90000    91.40757   358.23657     3.88849    88.59243     1.76343     3.88849
    33.00000    91.40749   358.23667     3.88859    88.59251     1.76333     3.88859
    33.10000    91.40740   358.23676     3.88868    88.59260     1.76324     3.88868
    33.20000    91.40732   358.23686     3.88877    88.59268     1.76314     3.88877
    33.30000    91.40723   358.23696     3.88886    88.59277     1.76304     3.88886
    33.40000    91.40715   358.23705     3.88896    88.59285     1.76295     3.88896
    33.50000    91.40706   358.23715     3.88905    88.59294     1.76285     3.88905
    33.60000    91.40698   358.23725     3.88914    88.59302     1.76275     3.88914
    33.70000    91.40689   358.23734     3.88924    88.59311     1.76266     3.88924
    33.80000    91.40681   358.23744     3.88933    88.59319     1.76256     3.88933
    33.90000    91.40672   358.23754     3.88942    88.59328     1.76246     3.88942
    34.00000    91.40664   358.23763     3.88951    88.59336     1.76237     3.88951
    34.10000    91.40655   358.23773     3.88961    88.59345     1.76227     3.88961
    34.20000    91.40647   358.23783     3.88970    88.59353     1.76217     3.88970
    34.30000    91.40638   358.23792     3.88979    88.59362     1.76208     3.88979
    34.40000    91.40630   358.23802     3.88988    88.59370     1.76198     3.88988
    34.50000    91.40621   358.23812     3.88998    88.59379     1.76188     3.88998
    34.60000    91.40613   358.23821     3.89007    88.59387     1.76179     3.89007
    34.70000    91.40604   358.23831     3.89016    88.59396     1.76169     3.89016
    34.80000    91.40596   358.23841     3.89025    88.59404     1.76159     3.89025
    34.90000    91.40588   358.23850     3.89035    88.59412     1.76150     3.89035
    35.00000    91.40579   358.23860     3.89044    88.59421     1.76140     3.89044
    35.10000    91.40571   358.23869     3.89053    88.59429     1.76131     3.89053
    35.20000    91.40562   358.23879     3.89062    88.59438     1.76121     3.89062
    35.30000    91.40554   358.23889     3.89071    88.59446     1.76111     3.89071
    35.40000    91.40545   358.23898     3.89081    88.59455     1.76102     3.89081
    35.50000    91.40537   358.23908     3.89090    88.59463     1.76092     3.89090
    35.60000    91.40528   358.23918     3.89099    88.59472     1.76082     3.89099
    35.70000    91.40520   358.23927     3.89108    88.59480     1.76073     3.89108
    35.80000    91.40512   358.23937     3.89118    88.59488     1.76063     3.89118
    35.90000    91.40503   358.23947     3.89127    88.59497     1.76053     3.89127
    36.00000    91.40495   358.23956     3.89136    88.59505     1.76044     3.89136
    36.10000    91.40486   358.23966     3.89145    88.59514     1.76034     3.89145
    36.20000    91.40478   358.23975     3.89154    88.59522     1.76025     3.89154
    36.30000    91.40469   358.23985     3.89164    88.59531     1.76015     3.89164
    36.40000    91.40461   358.23995     3.89173    88.59539     1.76005     3.89173
    36.50000    91.40452   358.24004     3.89182    88.59548     1.75996     3.89182
    36.60000    91.40444   358.24014     3.89191    88.59556     1.75986     3.89191
    36.70000    91.40436   358.24023     3.89200    88.59564     1.75977     3.89200
    36.80000    91.40427   358.24033     3.89209    88.59573     1.75967     3.89209
    36.90000    91.40419   358.24043     3.89219    88.59581     1.75957     3.89219
    37.00000    91.40410   358.24052     3.89228    88.59590     1.75948     3.89228
    37.10000    91.40402   358.24062     3.89237    88.59598     1.75938     3.89237
    37.20000    91.40393   358.24071     3.89246    88.59607     1.75929     3.89246
    37.30000    91.40385   358.24081     3.89255    88.59615     1.75919     3.89255
    37.40000    91.40377   358.24091     3.89264    88.59623     1.75909     3.89264
    37.50000    91.40368   358.24100     3.89274    88.59632     1.75900     3.89274
    37.60000    91.40360   358.24110     3.89283    88.59640     1.75890     3.89283
    37.70000    91.40351   358.24119     3.89292    88.59649     1.75881     3.89292
    37.80000    91.40343   358.24129     3.89301    88.59657     1.75871     3.89301
    37.90000    91.40335   358.24139     3.89310    88.59665     1.75861     3.89310
    38.00000    91.40326   358.24148     3.89319    88.59674     1.75852     3.89319
    38.10000    91.40318   358.24158     3.89328    88.59682     1.75842     3.89328
    38.20000    91.40309   358.24167     3.89338    88.59691     1.75833     3.89338
    38.30000    91.40301   358.24177     3.89347    88.59699     1.75823     3.89347
    38.40000    91.40293   358.24186     3.89356    88.59707     1.75814     3.89356
    38.50000    91.40284   358.24196     3.89365    88.59716     1.75804     3.89365
    38.60000    91.40276   358.24206     3.89374    88.59724     1.75794     3.89374
    38.70000    91.40267   358.24215     3.89383    88.59733     1.75785     3.89383
    38.80000    91.40259   358.24225     3.89392    88.59741     1.75775     3.89392
    38.90000    91.40251   358.24234     3.89401    88.59749     1.75766     3.89401
    39.00000    91.40242   358.24244     3.89411    88.59758     1.75756     3.89411
    39.10000    91.40234   358.24253     3.89420    88.59766     1.75747     3.89420
    39.20000    91.40226   358.24263     3.89429    88.59774     1.75737     3.89429
    39.30000    91.40217   358.24273     3.89438    88.59783     1.75727     3.89438
    39.40000    91.40209   358.24282     3.89447    88.59791     1.75718     3.89447
    39.50000    91.40200   358.24292     3.89456    88.59800     1.75708     3.89456
    39.60000    91.40192   358.24301     3.89465    88.59808     1.75699     3.89465
    39.70000    91.40184   358.24311     3.89474    88.59816     1.75689     3.89474
    39.80000    91.40175   358.24320     3.89483    88.59825     1.75680     3.89483
    39.90000    91.40167   358.24330     3.89492    88.59833     1.75670     3.89492
    40.00000    91.40159   358.24339     3.89501    88.59841     1.75661     3.89501
