 # applied field (T), theta (degree), phi (degree), abs for RE 1-2
     0.00000    10.40475   315.00000     0.03142    10.40475   225.00000     0.03142
     0.10000    10.21110   309.59918     0.03137    10.66972   219.88167     0.03154
     0.20000    10.11240   304.01772     0.03132    11.00633   215.11360     0.03167
     0.30000    10.11327   298.36562     0.03127    11.40342   210.71983     0.03180
     0.40000    10.21502   292.76274     0.03123    11.85013   206.70212     0.03193
     0.50000    10.41551   287.32461     0.03119    12.33636   203.04637     0.03206
     0.60000    10.70953   282.14941     0.03116    12.85310   199.72852     0.03219
     0.70000    11.08949   277.30959     0.03114    13.39244   196.71933     0.03232
     0.80000    11.54634   272.84939     0.03111    13.94760   193.98782     0.03245
     0.90000    12.07041   268.78739     0.03110    14.51284   191.50342     0.03258
     1.00000    12.65209   265.12178     0.03108    15.08331   189.23730     0.03271
     1.10000    13.28229   261.83656     0.03108    15.65498   187.16303     0.03283
     1.20000    14.01154   258.55771     0.03107    16.29818   185.10617     0.03297
     1.30000    14.71831   255.98696     0.03107    16.86199   183.36102     0.03309
     1.40000    15.51635   253.42471     0.03108    17.49024   181.61924     0.03321
     1.50000    16.27111   251.43835     0.03109    18.03624   180.12097     0.03332
     1.60000    17.11051   249.45325     0.03110    18.64066   178.61485     0.03343
     1.70000    17.96339   247.72192     0.03112    19.23011   177.20724     0.03354
     1.80000    18.82512   246.21518     0.03114    19.80334   175.88386     0.03364
     1.90000    19.69179   244.90743     0.03116    20.35939   174.63226     0.03373
     2.00000    20.63333   243.62372     0.03119    20.96024   173.36771     0.03382
     2.10000    21.50065   242.66465     0.03122    21.47817   172.23298     0.03389
     2.20000    22.43742   241.72104     0.03125    22.03622   171.07542     0.03396
     2.30000    23.36801   240.92689     0.03129    22.57137   169.95942     0.03402
     2.40000    24.29048   240.26621     0.03132    23.08346   168.87657     0.03406
     2.50000    25.20330   239.72533     0.03136    23.57246   167.81937     0.03409
     2.60000    26.17536   239.21340     0.03140    24.08941   166.72663     0.03411
     2.70000    27.13368   238.81687     0.03144    24.57949   165.64939     0.03412
     2.80000    28.07747   238.52454     0.03147    25.04302   164.58064     0.03410
     2.90000    29.07273   238.27313     0.03151    25.52511   163.46262     0.03408
     3.00000    30.05020   238.12207     0.03155    25.97755   162.34094     0.03403
     3.10000    31.00990   238.06231     0.03158    26.40119   161.20866     0.03396
     3.20000    32.01433   238.05276     0.03161    26.83531   160.00730     0.03387
     3.30000    32.99895   238.13128     0.03164    27.23879   158.78038     0.03376
     3.40000    34.02378   238.26895     0.03166    27.64741   157.46614     0.03361
     3.50000    35.08537   238.47511     0.03168    28.05717   156.05162     0.03344
     3.60000    36.12445   238.76853     0.03170    28.43495   154.58013     0.03323
     3.70000    37.19735   239.13593     0.03170    28.81266   152.98023     0.03298
     3.80000    38.30163   239.58415     0.03171    29.18982   151.23196     0.03269
     3.90000    39.43532   240.11899     0.03170    29.56816   149.31222     0.03235
     4.00000    40.64714   240.75320     0.03169    29.97656   147.11954     0.03194
     4.10000    41.88320   241.49049     0.03166    30.39872   144.68844     0.03147
     4.20000    43.14335   242.33219     0.03163    30.85112   141.98623     0.03093
     4.30000    44.52038   243.31813     0.03158    31.40779   138.78933     0.03029
     4.40000    45.96303   244.44340     0.03151    32.09070   135.12613     0.02955
     4.50000    47.55722   245.76503     0.03144    33.03375   130.73100     0.02866
     4.60000    49.33774   247.32826     0.03134    34.42180   125.42964     0.02761
     4.70000    51.37667   249.20843     0.03122    36.61740   118.99340     0.02635
     4.80000    53.85518   251.57727     0.03106    40.45870   111.04281     0.02484
     4.90000    57.14736   254.78264     0.03083    48.03675   101.29427     0.02309
     5.00000    63.90145   260.99109     0.03020    71.30905    88.81632     0.02185
     5.10000    76.99565   266.20096     0.02690   103.00435    93.79904     0.02690
     5.20000    76.99242   266.42758     0.02689   103.00758    93.57242     0.02689
     5.30000    76.98940   266.65435     0.02688   103.01060    93.34565     0.02688
     5.40000    76.98657   266.88128     0.02687   103.01343    93.11872     0.02687
     5.50000    76.98393   267.10836     0.02686   103.01607    92.89164     0.02686
     5.60000    76.98149   267.33558     0.02685   103.01851    92.66442     0.02685
     5.70000    76.97924   267.56293     0.02684   103.02076    92.43707     0.02684
     5.80000    76.97720   267.79040     0.02683   103.02280    92.20960     0.02683
     5.90000    76.97535   268.01800     0.02683   103.02465    91.98200     0.02683
     6.00000    76.97370   268.24571     0.02682   103.02630    91.75429     0.02682
     6.10000    76.97224   268.47352     0.02681   103.02776    91.52648     0.02681
     6.20000    76.97099   268.70143     0.02680   103.02901    91.29857     0.02680
     6.30000    76.96993   268.92943     0.02680   103.03007    91.07057     0.02680
     6.40000    76.96907   269.15751     0.02679   103.03093    90.84249     0.02679
     6.50000    76.96842   269.38567     0.02678   103.03158    90.61433     0.02678
     6.60000    76.96796   269.61390     0.02678   103.03204    90.38610     0.02678
     6.70000    76.96770   269.84219     0.02677   103.03230    90.15781     0.02677
     6.80000    76.96764   270.07054     0.02677   103.03236    89.92946     0.02677
     6.90000    76.96778   270.29893     0.02676   103.03222    89.70107     0.02676
     7.00000    76.96812   270.52737     0.02676   103.03188    89.47263     0.02676
     7.10000    76.96867   270.75583     0.02676   103.03133    89.24417     0.02676
     7.20000    76.96941   270.98433     0.02675   103.03059    89.01567     0.02675
     7.30000    76.97035   271.21284     0.02675   103.02965    88.78716     0.02675
     7.40000    76.97149   271.44136     0.02675   103.02851    88.55864     0.02675
     7.50000    76.97283   271.66989     0.02675   103.02717    88.33011     0.02675
     7.60000    76.97438   271.89841     0.02674   103.02562    88.10159     0.02674
     7.70000    76.97612   272.12692     0.02674   103.02388    87.87308     0.02674
     7.80000    76.97806   272.35542     0.02674   103.02194    87.64458     0.02674
     7.90000    76.98020   272.58389     0.02674   103.01980    87.41611     0.02674
     8.00000    76.98255   272.81233     0.02674   103.01745    87.18767     0.02674
     8.10000    76.98509   273.04073     0.02674   103.01491    86.95927     0.02674
     8.20000    76.98783   273.26908     0.02674   103.01217    86.73092     0.02674
     8.30000    76.99077   273.49738     0.02675   103.00923    86.50262     0.02675
     8.40000    76.99391   273.72561     0.02675   103.00609    86.27439     0.02675
     8.50000    76.99725   273.95378     0.02675   103.00275    86.04622     0.02675
     8.60000    77.00078   274.18188     0.02675   102.99922    85.81812     0.02675
     8.70000    77.00451   274.40989     0.02675   102.99549    85.59011     0.02675
     8.80000    77.00845   274.63781     0.02676   102.99155    85.36219     0.02676
     8.90000    77.01257   274.86564     0.02676   102.98743    85.13436     0.02676
     9.00000    77.01690   275.09336     0.02677   102.98310    84.90664     0.02677
     9.10000    77.02142   275.32097     0.02677   102.97858    84.67903     0.02677
     9.20000    77.02613   275.54846     0.02678   102.97387    84.45154     0.02678
     9.30000    77.03104   275.77583     0.02678   102.96896    84.22417     0.02678
     9.40000    77.03615   276.00306     0.02679   102.96385    83.99694     0.02679
     9.50000    77.04145   276.23016     0.02679   102.95855    83.76984     0.02679
     9.60000    77.04694   276.45711     0.02680   102.95306    83.54289     0.02680
     9.70000    77.05263   276.68390     0.02681   102.94737    83.31610     0.02681
     9.80000    77.05850   276.91054     0.02681   102.94150    83.08946     0.02681
     9.90000    77.06457   277.13701     0.02682   102.93543    82.86299     0.02682
    10.00000    77.07083   277.36331     0.02683   102.92917    82.63669     0.02683
    10.10000    77.07728   277.58942     0.02684   102.92272    82.41058     0.02684
    10.20000    77.08392   277.81535     0.02685   102.91608    82.18465     0.02685
    10.30000    77.09075   278.04108     0.02686   102.90925    81.95892     0.02686
    10.40000    77.09776   278.26662     0.02686   102.90224    81.73338     0.02686
    10.50000    77.10496   278.49194     0.02687   102.89504    81.50806     0.02687
    10.60000    77.11235   278.71705     0.02689   102.88765    81.28295     0.02689
    10.70000    77.11993   278.94194     0.02690   102.88007    81.05806     0.02690
    10.80000    77.12768   279.16661     0.02691   102.87232    80.83339     0.02691
    10.90000    77.13563   279.39104     0.02692   102.86437    80.60896     0.02692
    11.00000    77.14375   279.61523     0.02693   102.85625    80.38477     0.02693
    11.10000    77.15205   279.83917     0.02694   102.84795    80.16083     0.02694
    11.20000    77.16054   280.06286     0.02696   102.83946    79.93714     0.02696
    11.30000    77.16921   280.28629     0.02697   102.83079    79.71371     0.02697
    11.40000    77.17805   280.50945     0.02698   102.82195    79.49055     0.02698
    11.50000    77.18707   280.73234     0.02700   102.81293    79.26766     0.02700
    11.60000    77.19627   280.95495     0.02701   102.80373    79.04505     0.02701
    11.70000    77.20564   281.17728     0.02703   102.79436    78.82272     0.02703
    11.80000    77.21519   281.39932     0.02704   102.78481    78.60068     0.02704
    11.90000    77.22491   281.62106     0.02706   102.77509    78.37894     0.02706
    12.00000    77.23481   281.84250     0.02707   102.76519    78.15750     0.02707
    12.10000    77.24487   282.06363     0.02709   102.75513    77.93637     0.02709
    12.20000    77.25511   282.28445     0.02711   102.74489    77.71555     0.02711
    12.30000    77.26551   282.50494     0.02712   102.73449    77.49506     0.02712
    12.40000    77.27608   282.72511     0.02714   102.72392    77.27489     0.02714
    12.50000    77.28682   282.94495     0.02716   102.71318    77.05505     0.02716
    12.60000    77.29772   283.16445     0.02718   102.70228    76.83555     0.02718
    12.70000    77.30879   283.38360     0.02719   102.69121    76.61640     0.02719
    12.80000    77.32002   283.60241     0.02721   102.67998    76.39759     0.02721
    12.90000    77.33141   283.82086     0.02723   102.66859    76.17914     0.02723
    13.00000    77.34296   284.03895     0.02725   102.65704    75.96105     0.02725
    13.10000    77.35467   284.25668     0.02727   102.64533    75.74332     0.02727
    13.20000    77.36653   284.47404     0.02729   102.63347    75.52596     0.02729
    13.30000    77.37856   284.69102     0.02731   102.62144    75.30898     0.02731
    13.40000    77.39073   284.90762     0.02733   102.60927    75.09238     0.02733
    13.50000    77.40306   285.12384     0.02736   102.59694    74.87616     0.02736
    13.60000    77.41555   285.33966     0.02738   102.58445    74.66034     0.02738
    13.70000    77.42818   285.55509     0.02740   102.57182    74.44491     0.02740
    13.80000    77.44096   285.77011     0.02742   102.55904    74.22989     0.02742
    13.90000    77.45390   285.98473     0.02745   102.54610    74.01527     0.02745
    14.00000    77.46697   286.19894     0.02747   102.53303    73.80106     0.02747
    14.10000    77.48020   286.41273     0.02749   102.51980    73.58727     0.02749
    14.20000    77.49356   286.62611     0.02752   102.50644    73.37389     0.02752
    14.30000    77.50707   286.83905     0.02754   102.49293    73.16095     0.02754
    14.40000    77.52072   287.05157     0.02757   102.47928    72.94843     0.02757
    14.50000    77.53451   287.26366     0.02759   102.46549    72.73634     0.02759
    14.60000    77.54844   287.47530     0.02762   102.45156    72.52470     0.02762
    14.70000    77.56250   287.68650     0.02764   102.43750    72.31350     0.02764
    14.80000    77.57670   287.89726     0.02767   102.42330    72.10274     0.02767
    14.90000    77.59103   288.10756     0.02770   102.40897    71.89244     0.02770
    15.00000    77.60550   288.31741     0.02772   102.39450    71.68259     0.02772
    15.10000    77.62009   288.52680     0.02775   102.37991    71.47320     0.02775
    15.20000    77.63481   288.73572     0.02778   102.36519    71.26428     0.02778
    15.30000    77.64966   288.94418     0.02781   102.35034    71.05582     0.02781
    15.40000    77.66464   289.15217     0.02783   102.33536    70.84783     0.02783
    15.50000    77.67974   289.35967     0.02786   102.32026    70.64033     0.02786
    15.60000    77.69497   289.56670     0.02789   102.30503    70.43330     0.02789
    15.70000    77.71031   289.77325     0.02792   102.28969    70.22675     0.02792
    15.80000    77.72578   289.97931     0.02795   102.27422    70.02069     0.02795
    15.90000    77.74136   290.18488     0.02798   102.25864    69.81512     0.02798
    16.00000    77.75707   290.38996     0.02801   102.24293    69.61004     0.02801
    16.10000    77.77288   290.59454     0.02804   102.22712    69.40546     0.02804
    16.20000    77.78881   290.79862     0.02807   102.21119    69.20138     0.02807
    16.30000    77.80486   291.00219     0.02810   102.19514    68.99781     0.02810
    16.40000    77.82101   291.20526     0.02814   102.17899    68.79474     0.02814
    16.50000    77.83727   291.40782     0.02817   102.16273    68.59218     0.02817
    16.60000    77.85364   291.60986     0.02820   102.14636    68.39014     0.02820
    16.70000    77.87012   291.81139     0.02823   102.12988    68.18861     0.02823
    16.80000    77.88670   292.01240     0.02827   102.11330    67.98760     0.02827
    16.90000    77.90339   292.21288     0.02830   102.09661    67.78712     0.02830
    17.00000    77.92017   292.41284     0.02833   102.07983    67.58716     0.02833
    17.10000    77.93706   292.61228     0.02837   102.06294    67.38772     0.02837
    17.20000    77.95405   292.81118     0.02840   102.04595    67.18882     0.02840
    17.30000    77.97113   293.00955     0.02844   102.02887    66.99045     0.02844
    17.40000    77.98831   293.20738     0.02847   102.01169    66.79262     0.02847
    17.50000    78.00558   293.40468     0.02851   101.99442    66.59532     0.02851
    17.60000    78.02294   293.60143     0.02854   101.97706    66.39857     0.02854
    17.70000    78.04040   293.79765     0.02858   101.95960    66.20235     0.02858
    17.80000    78.05794   293.99331     0.02861   101.94206    66.00669     0.02861
    17.90000    78.07557   294.18843     0.02865   101.92443    65.81157     0.02865
    18.00000    78.09329   294.38300     0.02869   101.90671    65.61700     0.02869
    18.10000    78.11109   294.57702     0.02872   101.88891    65.42298     0.02872
    18.20000    78.12898   294.77048     0.02876   101.87102    65.22952     0.02876
    18.30000    78.14695   294.96339     0.02880   101.85305    65.03661     0.02880
    18.40000    78.16500   295.15573     0.02884   101.83500    64.84427     0.02884
    18.50000    78.18313   295.34752     0.02888   101.81687    64.65248     0.02888
    18.60000    78.20133   295.53875     0.02892   101.79867    64.46125     0.02892
    18.70000    78.21961   295.72941     0.02895   101.78039    64.27059     0.02895
    18.80000    78.23797   295.91951     0.02899   101.76203    64.08049     0.02899
    18.90000    78.25640   296.10904     0.02903   101.74360    63.89096     0.02903
    19.00000    78.27490   296.29801     0.02907   101.72510    63.70199     0.02907
    19.10000    78.29347   296.48640     0.02911   101.70653    63.51360     0.02911
    19.20000    78.31211   296.67422     0.02915   101.68789    63.32578     0.02915
    19.30000    78.33082   296.86147     0.02920   101.66918    63.13853     0.02920
    19.40000    78.34959   297.04815     0.02924   101.65041    62.95185     0.02924
    19.50000    78.36843   297.23425     0.02928   101.63157    62.76575     0.02928
    19.60000    78.38733   297.41977     0.02932   101.61267    62.58023     0.02932
    19.70000    78.40629   297.60472     0.02936   101.59371    62.39528     0.02936
    19.80000    78.42531   297.78908     0.02940   101.57469    62.21092     0.02940
    19.90000    78.44439   297.97287     0.02945   101.55561    62.02713     0.02945
    20.00000    78.46353   298.15608     0.02949   101.53647    61.84392     0.02949
    20.10000    78.48272   298.33870     0.02953   101.51728    61.66130     0.02953
    20.20000    78.50197   298.52074     0.02958   101.49803    61.47926     0.02958
    20.30000    78.52127   298.70220     0.02962   101.47873    61.29780     0.02962
    20.40000    78.54063   298.88307     0.02966   101.45937    61.11693     0.02966
    20.50000    78.56003   299.06336     0.02971   101.43997    60.93664     0.02971
    20.60000    78.57949   299.24306     0.02975   101.42051    60.75694     0.02975
    20.70000    78.59899   299.42218     0.02980   101.40101    60.57782     0.02980
    20.80000    78.61854   299.60070     0.02984   101.38146    60.39930     0.02984
    20.90000    78.63814   299.77864     0.02989   101.36186    60.22136     0.02989
    21.00000    78.65777   299.95600     0.02993   101.34223    60.04400     0.02993
    21.10000    78.67746   300.13276     0.02998   101.32254    59.86724     0.02998
    21.20000    78.69718   300.30893     0.03003   101.30282    59.69107     0.03003
    21.30000    78.71694   300.48452     0.03007   101.28306    59.51548     0.03007
    21.40000    78.73675   300.65951     0.03012   101.26325    59.34049     0.03012
    21.50000    78.75659   300.83392     0.03017   101.24341    59.16608     0.03017
    21.60000    78.77646   301.00773     0.03021   101.22354    58.99227     0.03021
    21.70000    78.79638   301.18096     0.03026   101.20362    58.81904     0.03026
    21.80000    78.81632   301.35359     0.03031   101.18368    58.64641     0.03031
    21.90000    78.83630   301.52563     0.03036   101.16370    58.47437     0.03036
    22.00000    78.85631   301.69709     0.03041   101.14369    58.30291     0.03041
    22.10000    78.87636   301.86795     0.03046   101.12364    58.13205     0.03046
    22.20000    78.89643   302.03822     0.03050   101.10357    57.96178     0.03050
    22.30000    78.91653   302.20790     0.03055   101.08347    57.79210     0.03055
    22.40000    78.93665   302.37699     0.03060   101.06335    57.62301     0.03060
    22.50000    78.95681   302.54549     0.03065   101.04319    57.45451     0.03065
    22.60000    78.97698   302.71340     0.03070   101.02302    57.28660     0.03070
    22.70000    78.99719   302.88072     0.03075   101.00281    57.11928     0.03075
    22.80000    79.01741   303.04745     0.03080   100.98259    56.95255     0.03080
    22.90000    79.03766   303.21359     0.03085   100.96234    56.78641     0.03085
    23.00000    79.05792   303.37915     0.03090   100.94208    56.62085     0.03090
    23.10000    79.07821   303.54411     0.03096   100.92179    56.45589     0.03096
    23.20000    79.09851   303.70849     0.03101   100.90149    56.29151     0.03101
    23.30000    79.11883   303.87227     0.03106   100.88117    56.12773     0.03106
    23.40000    79.13917   304.03548     0.03111   100.86083    55.96452     0.03111
    23.50000    79.15953   304.19809     0.03116   100.84047    55.80191     0.03116
    23.60000    79.17989   304.36012     0.03121   100.82011    55.63988     0.03121
    23.70000    79.20027   304.52156     0.03127   100.79973    55.47844     0.03127
    23.80000    79.22067   304.68242     0.03132   100.77933    55.31758     0.03132
    23.90000    79.24107   304.84270     0.03137   100.75893    55.15730     0.03137
    24.00000    79.26148   305.00239     0.03143   100.73852    54.99761     0.03143
    24.10000    79.28191   305.16150     0.03148   100.71809    54.83850     0.03148
    24.20000    79.30234   305.32003     0.03153   100.69766    54.67997     0.03153
    24.30000    79.32278   305.47797     0.03159   100.67722    54.52203     0.03159
    24.40000    79.34322   305.63534     0.03164   100.65678    54.36466     0.03164
    24.50000    79.36368   305.79213     0.03170   100.63632    54.20787     0.03170
    24.60000    79.38413   305.94833     0.03175   100.61587    54.05167     0.03175
    24.70000    79.40459   306.10396     0.03181   100.59541    53.89604     0.03181
    24.80000    79.42506   306.25902     0.03186   100.57494    53.74098     0.03186
    24.90000    79.44552   306.41350     0.03192   100.55448    53.58650     0.03192
    25.00000    79.46599   306.56740     0.03197   100.53401    53.43260     0.03197
    25.10000    79.48645   306.72073     0.03203   100.51355    53.27927     0.03203
    25.20000    79.50692   306.87348     0.03208   100.49308    53.12652     0.03208
    25.30000    79.52738   307.02567     0.03214   100.47262    52.97433     0.03214
    25.40000    79.54785   307.17728     0.03220   100.45215    52.82272     0.03220
    25.50000    79.56831   307.32833     0.03225   100.43169    52.67167     0.03225
    25.60000    79.58876   307.47881     0.03231   100.41124    52.52119     0.03231
    25.70000    79.60921   307.62872     0.03237   100.39079    52.37128     0.03237
    25.80000    79.62966   307.77806     0.03242   100.37034    52.22194     0.03242
    25.90000    79.65010   307.92684     0.03248   100.34990    52.07316     0.03248
    26.00000    79.67053   308.07505     0.03254   100.32947    51.92495     0.03254
    26.10000    79.69096   308.22271     0.03260   100.30904    51.77729     0.03260
    26.20000    79.71137   308.36980     0.03266   100.28863    51.63020     0.03266
    26.30000    79.73178   308.51633     0.03271   100.26822    51.48367     0.03271
    26.40000    79.75218   308.66230     0.03277   100.24782    51.33770     0.03277
    26.50000    79.77257   308.80772     0.03283   100.22743    51.19228     0.03283
    26.60000    79.79294   308.95258     0.03289   100.20706    51.04742     0.03289
    26.70000    79.81331   309.09689     0.03295   100.18669    50.90311     0.03295
    26.80000    79.83366   309.24064     0.03301   100.16634    50.75936     0.03301
    26.90000    79.85400   309.38384     0.03307   100.14600    50.61616     0.03307
    27.00000    79.87432   309.52649     0.03313   100.12568    50.47351     0.03313
    27.10000    79.89463   309.66859     0.03319   100.10537    50.33141     0.03319
    27.20000    79.91493   309.81015     0.03325   100.08507    50.18985     0.03325
    27.30000    79.93521   309.95116     0.03331   100.06479    50.04884     0.03331
    27.40000    79.95547   310.09162     0.03337   100.04453    49.90838     0.03337
    27.50000    79.97572   310.23154     0.03343   100.02428    49.76846     0.03343
    27.60000    79.99594   310.37092     0.03349   100.00406    49.62908     0.03349
    27.70000    80.01615   310.50976     0.03355    99.98385    49.49024     0.03355
    27.80000    80.03635   310.64806     0.03361    99.96365    49.35194     0.03361
    27.90000    80.05652   310.78583     0.03367    99.94348    49.21417     0.03367
    28.00000    80.07667   310.92305     0.03373    99.92333    49.07695     0.03373
    28.10000    80.09680   311.05975     0.03380    99.90320    48.94025     0.03380
    28.20000    80.11691   311.19591     0.03386    99.88309    48.80409     0.03386
    28.30000    80.13700   311.33154     0.03392    99.86300    48.66846     0.03392
    28.40000    80.15707   311.46664     0.03398    99.84293    48.53336     0.03398
    28.50000    80.17711   311.60122     0.03404    99.82289    48.39878     0.03404
    28.60000    80.19714   311.73527     0.03411    99.80286    48.26473     0.03411
    28.70000    80.21713   311.86879     0.03417    99.78287    48.13121     0.03417
    28.80000    80.23711   312.00180     0.03423    99.76289    47.99820     0.03423
    28.90000    80.25706   312.13428     0.03430    99.74294    47.86572     0.03430
    29.00000    80.27698   312.26624     0.03436    99.72302    47.73376     0.03436
    29.10000    80.29688   312.39768     0.03442    99.70312    47.60232     0.03442
    29.20000    80.31675   312.52861     0.03449    99.68325    47.47139     0.03449
    29.30000    80.33660   312.65903     0.03455    99.66340    47.34097     0.03455
    29.40000    80.35642   312.78893     0.03461    99.64358    47.21107     0.03461
    29.50000    80.37621   312.91832     0.03468    99.62379    47.08168     0.03468
    29.60000    80.39598   313.04720     0.03474    99.60402    46.95280     0.03474
    29.70000    80.41571   313.17558     0.03481    99.58429    46.82442     0.03481
    29.80000    80.43542   313.30345     0.03487    99.56458    46.69655     0.03487
    29.90000    80.45510   313.43081     0.03494    99.54490    46.56919     0.03494
    30.00000    80.47475   313.55767     0.03500    99.52525    46.44233     0.03500
    30.10000    80.49437   313.68404     0.03507    99.50563    46.31596     0.03507
    30.20000    80.51396   313.80990     0.03513    99.48604    46.19010     0.03513
    30.30000    80.53352   313.93527     0.03520    99.46648    46.06473     0.03520
    30.40000    80.55305   314.06014     0.03526    99.44695    45.93986     0.03526
    30.50000    80.57255   314.18452     0.03533    99.42745    45.81548     0.03533
    30.60000    80.59202   314.30840     0.03540    99.40798    45.69160     0.03540
    30.70000    80.61145   314.43180     0.03546    99.38855    45.56820     0.03546
    30.80000    80.63085   314.55471     0.03553    99.36915    45.44529     0.03553
    30.90000    80.65022   314.67713     0.03559    99.34978    45.32287     0.03559
    31.00000    80.66956   314.79906     0.03566    99.33044    45.20094     0.03566
    31.10000    80.68887   314.92052     0.03573    99.31113    45.07948     0.03573
    31.20000    80.70814   315.04149     0.03580    99.29186    44.95851     0.03580
    31.30000    80.72737   315.16199     0.03586    99.27263    44.83801     0.03586
    31.40000    80.74658   315.28200     0.03593    99.25342    44.71800     0.03593
    31.50000    80.76574   315.40154     0.03600    99.23426    44.59846     0.03600
    31.60000    80.78488   315.52061     0.03606    99.21512    44.47939     0.03606
    31.70000    80.80398   315.63921     0.03613    99.19602    44.36079     0.03613
    31.80000    80.82304   315.75733     0.03620    99.17696    44.24267     0.03620
    31.90000    80.84207   315.87499     0.03627    99.15793    44.12501     0.03627
    32.00000    80.86106   315.99218     0.03634    99.13894    44.00782     0.03634
    32.10000    80.88002   316.10890     0.03640    99.11998    43.89110     0.03640
    32.20000    80.89894   316.22516     0.03647    99.10106    43.77484     0.03647
    32.30000    80.91782   316.34097     0.03654    99.08218    43.65903     0.03654
    32.40000    80.93667   316.45631     0.03661    99.06333    43.54369     0.03661
    32.50000    80.95548   316.57119     0.03668    99.04452    43.42881     0.03668
    32.60000    80.97426   316.68562     0.03675    99.02574    43.31438     0.03675
    32.70000    80.99299   316.79959     0.03682    99.00701    43.20041     0.03682
    32.80000    81.01169   316.91312     0.03689    98.98831    43.08688     0.03689
    32.90000    81.03035   317.02619     0.03695    98.96965    42.97381     0.03695
    33.00000    81.04897   317.13881     0.03702    98.95103    42.86119     0.03702
    33.10000    81.06756   317.25099     0.03709    98.93244    42.74901     0.03709
    33.20000    81.08611   317.36272     0.03716    98.91389    42.63728     0.03716
    33.30000    81.10461   317.47401     0.03723    98.89539    42.52599     0.03723
    33.40000    81.12308   317.58486     0.03730    98.87692    42.41514     0.03730
    33.50000    81.14151   317.69526     0.03737    98.85849    42.30474     0.03737
    33.60000    81.15991   317.80524     0.03744    98.84009    42.19476     0.03744
    33.70000    81.17826   317.91477     0.03751    98.82174    42.08523     0.03751
    33.80000    81.19657   318.02387     0.03758    98.80343    41.97613     0.03758
    33.90000    81.21484   318.13254     0.03765    98.78516    41.86746     0.03765
    34.00000    81.23308   318.24078     0.03773    98.76692    41.75922     0.03773
    34.10000    81.25127   318.34859     0.03780    98.74873    41.65141     0.03780
    34.20000    81.26943   318.45597     0.03787    98.73057    41.54403     0.03787
    34.30000    81.28754   318.56293     0.03794    98.71246    41.43707     0.03794
    34.40000    81.30561   318.66946     0.03801    98.69439    41.33054     0.03801
    34.50000    81.32365   318.77557     0.03808    98.67635    41.22443     0.03808
    34.60000    81.34164   318.88126     0.03815    98.65836    41.11874     0.03815
    34.70000    81.35959   318.98654     0.03822    98.64041    41.01346     0.03822
    34.80000    81.37750   319.09140     0.03830    98.62250    40.90860     0.03830
    34.90000    81.39538   319.19584     0.03837    98.60462    40.80416     0.03837
    35.00000    81.41321   319.29987     0.03844    98.58679    40.70013     0.03844
    35.10000    81.43099   319.40349     0.03851    98.56901    40.59651     0.03851
    35.20000    81.44874   319.50671     0.03858    98.55126    40.49329     0.03858
    35.30000    81.46645   319.60951     0.03866    98.53355    40.39049     0.03866
    35.40000    81.48411   319.71191     0.03873    98.51589    40.28809     0.03873
    35.50000    81.50174   319.81391     0.03880    98.49826    40.18609     0.03880
    35.60000    81.51932   319.91550     0.03887    98.48068    40.08450     0.03887
    35.70000    81.53686   320.01669     0.03895    98.46314    39.98331     0.03895
    35.80000    81.55436   320.11749     0.03902    98.44564    39.88251     0.03902
    35.90000    81.57182   320.21788     0.03909    98.42818    39.78212     0.03909
    36.00000    81.58923   320.31789     0.03917    98.41077    39.68211     0.03917
    36.10000    81.60661   320.41749     0.03924    98.39339    39.58251     0.03924
    36.20000    81.62394   320.51671     0.03931    98.37606    39.48329     0.03931
    36.30000    81.64123   320.61554     0.03939    98.35877    39.38446     0.03939
    36.40000    81.65848   320.71398     0.03946    98.34152    39.28602     0.03946
    36.50000    81.67569   320.81203     0.03953    98.32431    39.18797     0.03953
    36.60000    81.69285   320.90970     0.03961    98.30715    39.09030     0.03961
    36.70000    81.70997   321.00699     0.03968    98.29003    38.99301     0.03968
    36.80000    81.72705   321.10389     0.03976    98.27295    38.89611     0.03976
    36.90000    81.74409   321.20041     0.03983    98.25591    38.79959     0.03983
    37.00000    81.76109   321.29656     0.03990    98.23891    38.70344     0.03990
    37.10000    81.77804   321.39233     0.03998    98.22196    38.60767     0.03998
    37.20000    81.79495   321.48773     0.04005    98.20505    38.51227     0.04005
    37.30000    81.81182   321.58275     0.04013    98.18818    38.41725     0.04013
    37.40000    81.82864   321.67740     0.04020    98.17136    38.32260     0.04020
    37.50000    81.84543   321.77168     0.04028    98.15457    38.22832     0.04028
    37.60000    81.86217   321.86560     0.04035    98.13783    38.13440     0.04035
    37.70000    81.87887   321.95914     0.04043    98.12113    38.04086     0.04043
    37.80000    81.89552   322.05233     0.04050    98.10448    37.94767     0.04050
    37.90000    81.91214   322.14515     0.04058    98.08786    37.85485     0.04058
    38.00000    81.92871   322.23761     0.04065    98.07129    37.76239     0.04065
    38.10000    81.94524   322.32970     0.04073    98.05476    37.67030     0.04073
    38.20000    81.96172   322.42145     0.04080    98.03828    37.57855     0.04080
    38.30000    81.97817   322.51283     0.04088    98.02183    37.48717     0.04088
    38.40000    81.99457   322.60386     0.04095    98.00543    37.39614     0.04095
    38.50000    82.01093   322.69454     0.04103    97.98907    37.30546     0.04103
    38.60000    82.02724   322.78486     0.04110    97.97276    37.21514     0.04110
    38.70000    82.04352   322.87484     0.04118    97.95648    37.12516     0.04118
    38.80000    82.05975   322.96447     0.04126    97.94025    37.03553     0.04126
    38.90000    82.07594   323.05375     0.04133    97.92406    36.94625     0.04133
    39.00000    82.09209   323.14268     0.04141    97.90791    36.85732     0.04141
    39.10000    82.10819   323.23127     0.04148    97.89181    36.76873     0.04148
    39.20000    82.12425   323.31952     0.04156    97.87575    36.68048     0.04156
    39.30000    82.14027   323.40743     0.04164    97.85973    36.59257     0.04164
    39.40000    82.15625   323.49500     0.04171    97.84375    36.50500     0.04171
    39.50000    82.17218   323.58223     0.04179    97.82782    36.41777     0.04179
    39.60000    82.18808   323.66913     0.04187    97.81192    36.33087     0.04187
    39.70000    82.20393   323.75569     0.04194    97.79607    36.24431     0.04194
    39.80000    82.21973   323.84192     0.04202    97.78027    36.15808     0.04202
    39.90000    82.23550   323.92782     0.04210    97.76450    36.07218     0.04210
    40.00000    82.25122   324.01339     0.04217    97.74878    35.98661     0.04217
