 # applied field (T), theta (degree), phi (degree), abs for RE 1-2
     0.00000   178.53697   135.00000     3.98232   178.53697    45.00000     3.98232
     0.10000   177.99352   148.46489     3.98292   178.91823    70.60406     3.97925
     0.20000   177.43588   155.50508     3.98343   178.95865   104.71304     3.97636
     0.30000   176.80467   160.28623     3.98391   178.63227   133.45645     3.97317
     0.40000   176.15898   163.47515     3.98433   178.10957   148.83396     3.96992
     0.50000   175.55567   165.59063     3.98466   177.55833   156.72445     3.96686
     0.60000   174.89718   167.31586     3.98497   176.92819   161.98323     3.96349
     0.70000   174.23531   168.64621     3.98521   176.28029   165.43823     3.96005
     0.80000   173.62229   169.62901     3.98538   175.67298   167.70568     3.95682
     0.90000   172.95649   170.50096     3.98550   175.00847   169.53975     3.95326
     1.00000   172.28935   171.22268     3.98557   174.33907   170.94482     3.94964
     1.10000   171.62112   171.82992     3.98557   173.66594   172.05489     3.94595
     1.20000   170.95195   172.34793     3.98552   172.98977   172.95379     3.94219
     1.30000   170.28196   172.79508     3.98540   172.31099   173.69652     3.93837
     1.40000   169.61120   173.18505     3.98523   171.62987   174.32062     3.93449
     1.50000   168.88800   173.55293     3.98499   170.89393   174.89016     3.93024
     1.60000   168.21572   173.85456     3.98470   170.20843   175.34405     3.92623
     1.70000   167.54270   174.12409     3.98435   169.52094   175.74005     3.92215
     1.80000   166.81706   174.38411     3.98392   168.77835   176.11379     3.91770
     1.90000   166.09053   174.61749     3.98343   168.03351   176.44266     3.91319
     2.00000   165.41509   174.81380     3.98292   167.33984   176.71472     3.90893
     2.10000   164.68674   175.00632     3.98231   166.59059   176.97753     3.90429
     2.20000   163.95738   175.18181     3.98165   165.83902   177.21384     3.89960
     2.30000   163.17476   175.35347     3.98087   165.03113   177.44204     3.89450
     2.40000   162.44319   175.50029     3.98009   164.27461   177.63514     3.88969
     2.50000   161.65808   175.64509     3.97919   163.46133   177.82366     3.88449
     2.60000   160.92411   175.76988     3.97830   162.69967   177.98477     3.87959
     2.70000   160.08373   175.90173     3.97723   161.82605   178.15361     3.87394
     2.80000   159.29438   176.01606     3.97616   161.00393   178.29901     3.86861
     2.90000   158.50351   176.12241     3.97504   160.17874   178.43347     3.86325
     3.00000   157.65817   176.22802     3.97379   159.29508   178.56626     3.85750
     3.10000   156.81099   176.32637     3.97248   158.40779   178.68937     3.85174
     3.20000   155.90877   176.42378     3.97104   157.46098   178.81080     3.84562
     3.30000   155.05762   176.50945     3.96963   156.56598   178.91729     3.83985
     3.40000   154.09767   176.59961     3.96799   155.55453   179.02904     3.83339
     3.50000   153.18869   176.67929     3.96639   154.59475   179.12764     3.82732
     3.60000   152.22366   176.75846     3.96465   153.57367   179.22548     3.82094
     3.70000   151.20210   176.83680     3.96276   152.49042   179.32221     3.81429
     3.80000   150.17750   176.91030     3.96082   151.40151   179.41296     3.80773
     3.90000   149.09563   176.98297     3.95873   150.24917   179.50271     3.80096
     4.00000   147.95595   177.05458     3.95649   149.03246   179.59125     3.79403
     4.10000   146.81242   177.12187     3.95422   147.80883   179.67458     3.78731
     4.20000   145.61029   177.18819     3.95180   146.51960   179.75687     3.78052
     4.30000   144.34897   177.25342     3.94923   145.16385   179.83800     3.77375
     4.40000   142.97269   177.32005     3.94641   143.68126   179.92107     3.76680
     4.50000   141.53555   177.38512     3.94346   142.12976   180.00244     3.76008
     4.60000   140.03691   177.44861     3.94038   140.50868   180.08207     3.75371
     4.70000   138.36441   177.51482     3.93696   138.69632   180.16535     3.74741
     4.80000   136.57203   177.58101     3.93331   136.75115   180.24878     3.74165
     4.90000   134.60193   177.64879     3.92935   134.61086   180.33433     3.73657
     5.00000   132.39512   177.71936     3.92499   132.21232   180.42339     3.73246
     5.10000   129.83423   177.79524     3.92006   129.43011   180.51885     3.72979
     5.20000   126.85648   177.87665     3.91450   126.20046   180.62056     3.72945
     5.30000   123.10817   177.97070     3.90782   122.14972   180.73636     3.73298
     5.40000   117.87419   178.08996     3.89910   116.53327   180.87910     3.74430
     5.50000   108.10154   178.28786     3.88458   106.21097   181.10085     3.77996
     5.60000    91.12372   178.59876     3.86409    88.87628   181.40124     3.86409
     5.70000    91.12372   178.59875     3.86409    88.87628   181.40125     3.86409
     5.80000    91.12372   178.59874     3.86409    88.87628   181.40126     3.86409
     5.90000    91.12373   178.59873     3.86409    88.87627   181.40127     3.86409
     6.00000    91.12373   178.59872     3.86409    88.87627   181.40128     3.86409
     6.10000    91.12373   178.59871     3.86409    88.87627   181.40129     3.86409
     6.20000    91.12373   178.59869     3.86409    88.87627   181.40131     3.86409
     6.30000    91.12373   178.59868     3.86409    88.87627   181.40132     3.86409
     6.40000    91.12373   178.59867     3.86409    88.87627   181.40133     3.86409
     6.50000    91.12373   178.59866     3.86409    88.87627   181.40134     3.86409
     6.60000    91.12374   178.59865     3.86409    88.87626   181.40135     3.86409
     6.70000    91.12374   178.59864     3.86409    88.87626   181.40136     3.86409
     6.80000    91.12374   178.59862     3.86409    88.87626   181.40138     3.86409
     6.90000    91.12374   178.59861     3.86409    88.87626   181.40139     3.86409
     7.00000    91.12374   178.59860     3.86409    88.87626   181.40140     3.86409
     7.10000    91.12374   178.59859     3.86409    88.87626   181.40141     3.86409
     7.20000    91.12375   178.59858     3.86409    88.87625   181.40142     3.86409
     7.30000    91.12375   178.59857     3.86409    88.87625   181.40143     3.86409
     7.40000    91.12375   178.59855     3.86410    88.87625   181.40145     3.86410
     7.50000    91.12375   178.59854     3.86410    88.87625   181.40146     3.86410
     7.60000    91.12375   178.59853     3.86410    88.87625   181.40147     3.86410
     7.70000    91.12375   178.59852     3.86410    88.87625   181.40148     3.86410
     7.80000    91.12376   178.59851     3.86410    88.87624   181.40149     3.86410
     7.90000    91.12376   178.59850     3.86410    88.87624   181.40150     3.86410
     8.00000    91.12376   178.59849     3.86410    88.87624   181.40151     3.86410
     8.10000    91.12376   178.59847     3.86410    88.87624   181.40153     3.86410
     8.20000    91.12376   178.59846     3.86410    88.87624   181.40154     3.86410
     8.30000    91.12376   178.59845     3.86410    88.87624   181.40155     3.86410
     8.40000    91.12377   178.59844     3.86410    88.87623   181.40156     3.86410
     8.50000    91.12377   178.59843     3.86410    88.87623   181.40157     3.86410
     8.60000    91.12377   178.59842     3.86410    88.87623   181.40158     3.86410
     8.70000    91.12377   178.59840     3.86410    88.87623   181.40160     3.86410
     8.80000    91.12377   178.59839     3.86410    88.87623   181.40161     3.86410
     8.90000    91.12377   178.59838     3.86410    88.87623   181.40162     3.86410
     9.00000    91.12378   178.59837     3.86410    88.87622   181.40163     3.86410
     9.10000    91.12378   178.59836     3.86410    88.87622   181.40164     3.86410
     9.20000    91.12378   178.59834     3.86410    88.87622   181.40166     3.86410
     9.30000    91.12378   178.59833     3.86410    88.87622   181.40167     3.86410
     9.40000    91.12378   178.59832     3.86410    88.87622   181.40168     3.86410
     9.50000    91.12379   178.59831     3.86410    88.87621   181.40169     3.86410
     9.60000    91.12379   178.59830     3.86410    88.87621   181.40170     3.86410
     9.70000    91.12379   178.59829     3.86410    88.87621   181.40171     3.86410
     9.80000    91.12379   178.59827     3.86410    88.87621   181.40173     3.86410
     9.90000    91.12379   178.59826     3.86410    88.87621   181.40174     3.86410
    10.00000    91.12379   178.59825     3.86410    88.87621   181.40175     3.86410
    10.10000    91.12380   178.59824     3.86410    88.87620   181.40176     3.86410
    10.20000    91.12380   178.59823     3.86410    88.87620   181.40177     3.86410
    10.30000    91.12380   178.59822     3.86410    88.87620   181.40178     3.86410
    10.40000    91.12380   178.59820     3.86410    88.87620   181.40180     3.86410
    10.50000    91.12380   178.59819     3.86410    88.87620   181.40181     3.86410
    10.60000    91.12381   178.59818     3.86410    88.87619   181.40182     3.86410
    10.70000    91.12381   178.59817     3.86410    88.87619   181.40183     3.86410
    10.80000    91.12381   178.59816     3.86410    88.87619   181.40184     3.86410
    10.90000    91.12381   178.59814     3.86410    88.87619   181.40186     3.86410
    11.00000    91.12381   178.59813     3.86410    88.87619   181.40187     3.86410
    11.10000    91.12382   178.59812     3.86410    88.87618   181.40188     3.86410
    11.20000    91.12382   178.59811     3.86410    88.87618   181.40189     3.86410
    11.30000    91.12382   178.59810     3.86410    88.87618   181.40190     3.86410
    11.40000    91.12382   178.59808     3.86410    88.87618   181.40192     3.86410
    11.50000    91.12382   178.59807     3.86409    88.87618   181.40193     3.86409
    11.60000    91.12383   178.59806     3.86409    88.87617   181.40194     3.86409
    11.70000    91.12383   178.59805     3.86409    88.87617   181.40195     3.86409
    11.80000    91.12383   178.59804     3.86409    88.87617   181.40196     3.86409
    11.90000    91.12383   178.59803     3.86409    88.87617   181.40197     3.86409
    12.00000    91.12383   178.59801     3.86409    88.87617   181.40199     3.86409
    12.10000    91.12384   178.59800     3.86409    88.87616   181.40200     3.86409
    12.20000    91.12384   178.59799     3.86409    88.87616   181.40201     3.86409
    12.30000    91.12384   178.59798     3.86409    88.87616   181.40202     3.86409
    12.40000    91.12384   178.59797     3.86409    88.87616   181.40203     3.86409
    12.50000    91.12384   178.59795     3.86409    88.87616   181.40205     3.86409
    12.60000    91.12385   178.59794     3.86409    88.87615   181.40206     3.86409
    12.70000    91.12385   178.59793     3.86409    88.87615   181.40207     3.86409
    12.80000    91.12385   178.59792     3.86409    88.87615   181.40208     3.86409
    12.90000    91.12385   178.59791     3.86409    88.87615   181.40209     3.86409
    13.00000    91.12385   178.59789     3.86409    88.87615   181.40211     3.86409
    13.10000    91.12386   178.59788     3.86409    88.87614   181.40212     3.86409
    13.20000    91.12386   178.59787     3.86409    88.87614   181.40213     3.86409
    13.30000    91.12386   178.59786     3.86408    88.87614   181.40214     3.86408
    13.40000    91.12386   178.59785     3.86408    88.87614   181.40215     3.86408
    13.50000    91.12386   178.59783     3.86408    88.87614   181.40217     3.86408
    13.60000    91.12387   178.59782     3.86408    88.87613   181.40218     3.86408
    13.70000    91.12387   178.59781     3.86408    88.87613   181.40219     3.86408
    13.80000    91.12387   178.59780     3.86408    88.87613   181.40220     3.86408
    13.90000    91.12387   178.59779     3.86408    88.87613   181.40221     3.86408
    14.00000    91.12387   178.59777     3.86408    88.87613   181.40223     3.86408
    14.10000    91.12388   178.59776     3.86408    88.87612   181.40224     3.86408
    14.20000    91.12388   178.59775     3.86408    88.87612   181.40225     3.86408
    14.30000    91.12388   178.59774     3.86408    88.87612   181.40226     3.86408
    14.40000    91.12388   178.59772     3.86408    88.87612   181.40228     3.86408
    14.50000    91.12389   178.59771     3.86407    88.87611   181.40229     3.86407
    14.60000    91.12389   178.59770     3.86407    88.87611   181.40230     3.86407
    14.70000    91.12389   178.59769     3.86407    88.87611   181.40231     3.86407
    14.80000    91.12389   178.59768     3.86407    88.87611   181.40232     3.86407
    14.90000    91.12389   178.59766     3.86407    88.87611   181.40234     3.86407
    15.00000    91.12390   178.59765     3.86407    88.87610   181.40235     3.86407
    15.10000    91.12390   178.59764     3.86407    88.87610   181.40236     3.86407
    15.20000    91.12390   178.59763     3.86407    88.87610   181.40237     3.86407
    15.30000    91.12390   178.59762     3.86407    88.87610   181.40238     3.86407
    15.40000    91.12391   178.59760     3.86407    88.87609   181.40240     3.86407
    15.50000    91.12391   178.59759     3.86406    88.87609   181.40241     3.86406
    15.60000    91.12391   178.59758     3.86406    88.87609   181.40242     3.86406
    15.70000    91.12391   178.59757     3.86406    88.87609   181.40243     3.86406
    15.80000    91.12391   178.59755     3.86406    88.87609   181.40245     3.86406
    15.90000    91.12392   178.59754     3.86406    88.87608   181.40246     3.86406
    16.00000    91.12392   178.59753     3.86406    88.87608   181.40247     3.86406
    16.10000    91.12392   178.59752     3.86406    88.87608   181.40248     3.86406
    16.20000    91.12392   178.59751     3.86406    88.87608   181.40249     3.86406
    16.30000    91.12393   178.59749     3.86405    88.87607   181.40251     3.86405
    16.40000    91.12393   178.59748     3.86405    88.87607   181.40252     3.86405
    16.50000    91.12393   178.59747     3.86405    88.87607   181.40253     3.86405
    16.60000    91.12393   178.59746     3.86405    88.87607   181.40254     3.86405
    16.70000    91.12394   178.59744     3.86405    88.87606   181.40256     3.86405
    16.80000    91.12394   178.59743     3.86405    88.87606   181.40257     3.86405
    16.90000    91.12394   178.59742     3.86405    88.87606   181.40258     3.86405
    17.00000    91.12394   178.59741     3.86404    88.87606   181.40259     3.86404
    17.10000    91.12394   178.59739     3.86404    88.87606   181.40261     3.86404
    17.20000    91.12395   178.59738     3.86404    88.87605   181.40262     3.86404
    17.30000    91.12395   178.59737     3.86404    88.87605   181.40263     3.86404
    17.40000    91.12395   178.59736     3.86404    88.87605   181.40264     3.86404
    17.50000    91.12395   178.59735     3.86404    88.87605   181.40265     3.86404
    17.60000    91.12396   178.59733     3.86404    88.87604   181.40267     3.86404
    17.70000    91.12396   178.59732     3.86403    88.87604   181.40268     3.86403
    17.80000    91.12396   178.59731     3.86403    88.87604   181.40269     3.86403
    17.90000    91.12396   178.59730     3.86403    88.87604   181.40270     3.86403
    18.00000    91.12397   178.59728     3.86403    88.87603   181.40272     3.86403
    18.10000    91.12397   178.59727     3.86403    88.87603   181.40273     3.86403
    18.20000    91.12397   178.59726     3.86403    88.87603   181.40274     3.86403
    18.30000    91.12397   178.59725     3.86402    88.87603   181.40275     3.86402
    18.40000    91.12398   178.59723     3.86402    88.87602   181.40277     3.86402
    18.50000    91.12398   178.59722     3.86402    88.87602   181.40278     3.86402
    18.60000    91.12398   178.59721     3.86402    88.87602   181.40279     3.86402
    18.70000    91.12398   178.59720     3.86402    88.87602   181.40280     3.86402
    18.80000    91.12399   178.59718     3.86402    88.87601   181.40282     3.86402
    18.90000    91.12399   178.59717     3.86401    88.87601   181.40283     3.86401
    19.00000    91.12399   178.59716     3.86401    88.87601   181.40284     3.86401
    19.10000    91.12399   178.59715     3.86401    88.87601   181.40285     3.86401
    19.20000    91.12400   178.59713     3.86401    88.87600   181.40287     3.86401
    19.30000    91.12400   178.59712     3.86401    88.87600   181.40288     3.86401
    19.40000    91.12400   178.59711     3.86400    88.87600   181.40289     3.86400
    19.50000    91.12400   178.59710     3.86400    88.87600   181.40290     3.86400
    19.60000    91.12401   178.59708     3.86400    88.87599   181.40292     3.86400
    19.70000    91.12401   178.59707     3.86400    88.87599   181.40293     3.86400
    19.80000    91.12401   178.59706     3.86400    88.87599   181.40294     3.86400
    19.90000    91.12401   178.59705     3.86400    88.87599   181.40295     3.86400
    20.00000    91.12402   178.59703     3.86399    88.87598   181.40297     3.86399
    20.10000    91.12402   178.59702     3.86399    88.87598   181.40298     3.86399
    20.20000    91.12402   178.59701     3.86399    88.87598   181.40299     3.86399
    20.30000    91.12402   178.59700     3.86399    88.87598   181.40300     3.86399
    20.40000    91.12403   178.59698     3.86398    88.87597   181.40302     3.86398
    20.50000    91.12403   178.59697     3.86398    88.87597   181.40303     3.86398
    20.60000    91.12403   178.59696     3.86398    88.87597   181.40304     3.86398
    20.70000    91.12404   178.59695     3.86398    88.87596   181.40305     3.86398
    20.80000    91.12404   178.59693     3.86398    88.87596   181.40307     3.86398
    20.90000    91.12404   178.59692     3.86397    88.87596   181.40308     3.86397
    21.00000    91.12404   178.59691     3.86397    88.87596   181.40309     3.86397
    21.10000    91.12405   178.59690     3.86397    88.87595   181.40310     3.86397
    21.20000    91.12405   178.59688     3.86397    88.87595   181.40312     3.86397
    21.30000    91.12405   178.59687     3.86397    88.87595   181.40313     3.86397
    21.40000    91.12405   178.59686     3.86396    88.87595   181.40314     3.86396
    21.50000    91.12406   178.59684     3.86396    88.87594   181.40316     3.86396
    21.60000    91.12406   178.59683     3.86396    88.87594   181.40317     3.86396
    21.70000    91.12406   178.59682     3.86396    88.87594   181.40318     3.86396
    21.80000    91.12407   178.59681     3.86395    88.87593   181.40319     3.86395
    21.90000    91.12407   178.59679     3.86395    88.87593   181.40321     3.86395
    22.00000    91.12407   178.59678     3.86395    88.87593   181.40322     3.86395
    22.10000    91.12407   178.59677     3.86395    88.87593   181.40323     3.86395
    22.20000    91.12408   178.59676     3.86394    88.87592   181.40324     3.86394
    22.30000    91.12408   178.59674     3.86394    88.87592   181.40326     3.86394
    22.40000    91.12408   178.59673     3.86394    88.87592   181.40327     3.86394
    22.50000    91.12408   178.59672     3.86394    88.87592   181.40328     3.86394
    22.60000    91.12409   178.59670     3.86393    88.87591   181.40330     3.86393
    22.70000    91.12409   178.59669     3.86393    88.87591   181.40331     3.86393
    22.80000    91.12409   178.59668     3.86393    88.87591   181.40332     3.86393
    22.90000    91.12410   178.59667     3.86393    88.87590   181.40333     3.86393
    23.00000    91.12410   178.59665     3.86392    88.87590   181.40335     3.86392
    23.10000    91.12410   178.59664     3.86392    88.87590   181.40336     3.86392
    23.20000    91.12410   178.59663     3.86392    88.87590   181.40337     3.86392
    23.30000    91.12411   178.59662     3.86392    88.87589   181.40338     3.86392
    23.40000    91.12411   178.59660     3.86391    88.87589   181.40340     3.86391
    23.50000    91.12411   178.59659     3.86391    88.87589   181.40341     3.86391
    23.60000    91.12412   178.59658     3.86391    88.87588   181.40342     3.86391
    23.70000    91.12412   178.59656     3.86391    88.87588   181.40344     3.86391
    23.80000    91.12412   178.59655     3.86390    88.87588   181.40345     3.86390
    23.90000    91.12412   178.59654     3.86390    88.87588   181.40346     3.86390
    24.00000    91.12413   178.59653     3.86390    88.87587   181.40347     3.86390
    24.10000    91.12413   178.59651     3.86390    88.87587   181.40349     3.86390
    24.20000    91.12413   178.59650     3.86389    88.87587   181.40350     3.86389
    24.30000    91.12414   178.59649     3.86389    88.87586   181.40351     3.86389
    24.40000    91.12414   178.59647     3.86389    88.87586   181.40353     3.86389
    24.50000    91.12414   178.59646     3.86388    88.87586   181.40354     3.86388
    24.60000    91.12415   178.59645     3.86388    88.87585   181.40355     3.86388
    24.70000    91.12415   178.59644     3.86388    88.87585   181.40356     3.86388
    24.80000    91.12415   178.59642     3.86388    88.87585   181.40358     3.86388
    24.90000    91.12415   178.59641     3.86387    88.87585   181.40359     3.86387
    25.00000    91.12416   178.59640     3.86387    88.87584   181.40360     3.86387
    25.10000    91.12416   178.59638     3.86387    88.87584   181.40362     3.86387
    25.20000    91.12416   178.59637     3.86386    88.87584   181.40363     3.86386
    25.30000    91.12417   178.59636     3.86386    88.87583   181.40364     3.86386
    25.40000    91.12417   178.59634     3.86386    88.87583   181.40366     3.86386
    25.50000    91.12417   178.59633     3.86385    88.87583   181.40367     3.86385
    25.60000    91.12418   178.59632     3.86385    88.87582   181.40368     3.86385
    25.70000    91.12418   178.59631     3.86385    88.87582   181.40369     3.86385
    25.80000    91.12418   178.59629     3.86385    88.87582   181.40371     3.86385
    25.90000    91.12418   178.59628     3.86384    88.87582   181.40372     3.86384
    26.00000    91.12419   178.59627     3.86384    88.87581   181.40373     3.86384
    26.10000    91.12419   178.59625     3.86384    88.87581   181.40375     3.86384
    26.20000    91.12419   178.59624     3.86383    88.87581   181.40376     3.86383
    26.30000    91.12420   178.59623     3.86383    88.87580   181.40377     3.86383
    26.40000    91.12420   178.59621     3.86383    88.87580   181.40379     3.86383
    26.50000    91.12420   178.59620     3.86382    88.87580   181.40380     3.86382
    26.60000    91.12421   178.59619     3.86382    88.87579   181.40381     3.86382
    26.70000    91.12421   178.59618     3.86382    88.87579   181.40382     3.86382
    26.80000    91.12421   178.59616     3.86381    88.87579   181.40384     3.86381
    26.90000    91.12422   178.59615     3.86381    88.87578   181.40385     3.86381
    27.00000    91.12422   178.59614     3.86381    88.87578   181.40386     3.86381
    27.10000    91.12422   178.59612     3.86380    88.87578   181.40388     3.86380
    27.20000    91.12422   178.59611     3.86380    88.87578   181.40389     3.86380
    27.30000    91.12423   178.59610     3.86380    88.87577   181.40390     3.86380
    27.40000    91.12423   178.59608     3.86379    88.87577   181.40392     3.86379
    27.50000    91.12423   178.59607     3.86379    88.87577   181.40393     3.86379
    27.60000    91.12424   178.59606     3.86379    88.87576   181.40394     3.86379
    27.70000    91.12424   178.59604     3.86378    88.87576   181.40396     3.86378
    27.80000    91.12424   178.59603     3.86378    88.87576   181.40397     3.86378
    27.90000    91.12425   178.59602     3.86378    88.87575   181.40398     3.86378
    28.00000    91.12425   178.59600     3.86377    88.87575   181.40400     3.86377
    28.10000    91.12425   178.59599     3.86377    88.87575   181.40401     3.86377
    28.20000    91.12426   178.59598     3.86377    88.87574   181.40402     3.86377
    28.30000    91.12426   178.59596     3.86376    88.87574   181.40404     3.86376
    28.40000    91.12426   178.59595     3.86376    88.87574   181.40405     3.86376
    28.50000    91.12427   178.59594     3.86375    88.87573   181.40406     3.86375
    28.60000    91.12427   178.59593     3.86375    88.87573   181.40407     3.86375
    28.70000    91.12427   178.59591     3.86375    88.87573   181.40409     3.86375
    28.80000    91.12428   178.59590     3.86374    88.87572   181.40410     3.86374
    28.90000    91.12428   178.59589     3.86374    88.87572   181.40411     3.86374
    29.00000    91.12428   178.59587     3.86374    88.87572   181.40413     3.86374
    29.10000    91.12429   178.59586     3.86373    88.87571   181.40414     3.86373
    29.20000    91.12429   178.59585     3.86373    88.87571   181.40415     3.86373
    29.30000    91.12429   178.59583     3.86373    88.87571   181.40417     3.86373
    29.40000    91.12430   178.59582     3.86372    88.87570   181.40418     3.86372
    29.50000    91.12430   178.59581     3.86372    88.87570   181.40419     3.86372
    29.60000    91.12430   178.59579     3.86371    88.87570   181.40421     3.86371
    29.70000    91.12431   178.59578     3.86371    88.87569   181.40422     3.86371
    29.80000    91.12431   178.59577     3.86371    88.87569   181.40423     3.86371
    29.90000    91.12431   178.59575     3.86370    88.87569   181.40425     3.86370
    30.00000    91.12432   178.59574     3.86370    88.87568   181.40426     3.86370
    30.10000    91.12432   178.59573     3.86369    88.87568   181.40427     3.86369
    30.20000    91.12432   178.59571     3.86369    88.87568   181.40429     3.86369
    30.30000    91.12433   178.59570     3.86369    88.87567   181.40430     3.86369
    30.40000    91.12433   178.59569     3.86368    88.87567   181.40431     3.86368
    30.50000    91.12433   178.59567     3.86368    88.87567   181.40433     3.86368
    30.60000    91.12434   178.59566     3.86368    88.87566   181.40434     3.86368
    30.70000    91.12434   178.59565     3.86367    88.87566   181.40435     3.86367
    30.80000    91.12434   178.59563     3.86367    88.87566   181.40437     3.86367
    30.90000    91.12435   178.59562     3.86366    88.87565   181.40438     3.86366
    31.00000    91.12435   178.59561     3.86366    88.87565   181.40439     3.86366
    31.10000    91.12435   178.59559     3.86365    88.87565   181.40441     3.86365
    31.20000    91.12436   178.59558     3.86365    88.87564   181.40442     3.86365
    31.30000    91.12436   178.59556     3.86365    88.87564   181.40444     3.86365
    31.40000    91.12437   178.59555     3.86364    88.87563   181.40445     3.86364
    31.50000    91.12437   178.59554     3.86364    88.87563   181.40446     3.86364
    31.60000    91.12437   178.59552     3.86363    88.87563   181.40448     3.86363
    31.70000    91.12438   178.59551     3.86363    88.87562   181.40449     3.86363
    31.80000    91.12438   178.59550     3.86363    88.87562   181.40450     3.86363
    31.90000    91.12438   178.59548     3.86362    88.87562   181.40452     3.86362
    32.00000    91.12439   178.59547     3.86362    88.87561   181.40453     3.86362
    32.10000    91.12439   178.59546     3.86361    88.87561   181.40454     3.86361
    32.20000    91.12439   178.59544     3.86361    88.87561   181.40456     3.86361
    32.30000    91.12440   178.59543     3.86360    88.87560   181.40457     3.86360
    32.40000    91.12440   178.59542     3.86360    88.87560   181.40458     3.86360
    32.50000    91.12440   178.59540     3.86360    88.87560   181.40460     3.86360
    32.60000    91.12441   178.59539     3.86359    88.87559   181.40461     3.86359
    32.70000    91.12441   178.59538     3.86359    88.87559   181.40462     3.86359
    32.80000    91.12442   178.59536     3.86358    88.87558   181.40464     3.86358
    32.90000    91.12442   178.59535     3.86358    88.87558   181.40465     3.86358
    33.00000    91.12442   178.59533     3.86357    88.87558   181.40467     3.86357
    33.10000    91.12443   178.59532     3.86357    88.87557   181.40468     3.86357
    33.20000    91.12443   178.59531     3.86356    88.87557   181.40469     3.86356
    33.30000    91.12443   178.59529     3.86356    88.87557   181.40471     3.86356
    33.40000    91.12444   178.59528     3.86356    88.87556   181.40472     3.86356
    33.50000    91.12444   178.59527     3.86355    88.87556   181.40473     3.86355
    33.60000    91.12444   178.59525     3.86355    88.87556   181.40475     3.86355
    33.70000    91.12445   178.59524     3.86354    88.87555   181.40476     3.86354
    33.80000    91.12445   178.59523     3.86354    88.87555   181.40477     3.86354
    33.90000    91.12446   178.59521     3.86353    88.87554   181.40479     3.86353
    34.00000    91.12446   178.59520     3.86353    88.87554   181.40480     3.86353
    34.10000    91.12446   178.59518     3.86352    88.87554   181.40482     3.86352
    34.20000    91.12447   178.59517     3.86352    88.87553   181.40483     3.86352
    34.30000    91.12447   178.59516     3.86351    88.87553   181.40484     3.86351
    34.40000    91.12447   178.59514     3.86351    88.87553   181.40486     3.86351
    34.50000    91.12448   178.59513     3.86350    88.87552   181.40487     3.86350
    34.60000    91.12448   178.59512     3.86350    88.87552   181.40488     3.86350
    34.70000    91.12449   178.59510     3.86350    88.87551   181.40490     3.86350
    34.80000    91.12449   178.59509     3.86349    88.87551   181.40491     3.86349
    34.90000    91.12449   178.59508     3.86349    88.87551   181.40492     3.86349
    35.00000    91.12450   178.59506     3.86348    88.87550   181.40494     3.86348
    35.10000    91.12450   178.59505     3.86348    88.87550   181.40495     3.86348
    35.20000    91.12450   178.59503     3.86347    88.87550   181.40497     3.86347
    35.30000    91.12451   178.59502     3.86347    88.87549   181.40498     3.86347
    35.40000    91.12451   178.59501     3.86346    88.87549   181.40499     3.86346
    35.50000    91.12452   178.59499     3.86346    88.87548   181.40501     3.86346
    35.60000    91.12452   178.59498     3.86345    88.87548   181.40502     3.86345
    35.70000    91.12452   178.59496     3.86345    88.87548   181.40504     3.86345
    35.80000    91.12453   178.59495     3.86344    88.87547   181.40505     3.86344
    35.90000    91.12453   178.59494     3.86344    88.87547   181.40506     3.86344
    36.00000    91.12454   178.59492     3.86343    88.87546   181.40508     3.86343
    36.10000    91.12454   178.59491     3.86343    88.87546   181.40509     3.86343
    36.20000    91.12454   178.59490     3.86342    88.87546   181.40510     3.86342
    36.30000    91.12455   178.59488     3.86342    88.87545   181.40512     3.86342
    36.40000    91.12455   178.59487     3.86341    88.87545   181.40513     3.86341
    36.50000    91.12455   178.59485     3.86341    88.87545   181.40515     3.86341
    36.60000    91.12456   178.59484     3.86340    88.87544   181.40516     3.86340
    36.70000    91.12456   178.59483     3.86340    88.87544   181.40517     3.86340
    36.80000    91.12457   178.59481     3.86339    88.87543   181.40519     3.86339
    36.90000    91.12457   178.59480     3.86339    88.87543   181.40520     3.86339
    37.00000    91.12457   178.59478     3.86338    88.87543   181.40522     3.86338
    37.10000    91.12458   178.59477     3.86338    88.87542   181.40523     3.86338
    37.20000    91.12458   178.59476     3.86337    88.87542   181.40524     3.86337
    37.30000    91.12459   178.59474     3.86337    88.87541   181.40526     3.86337
    37.40000    91.12459   178.59473     3.86336    88.87541   181.40527     3.86336
    37.50000    91.12459   178.59471     3.86335    88.87541   181.40529     3.86335
    37.60000    91.12460   178.59470     3.86335    88.87540   181.40530     3.86335
    37.70000    91.12460   178.59469     3.86334    88.87540   181.40531     3.86334
    37.80000    91.12461   178.59467     3.86334    88.87539   181.40533     3.86334
    37.90000    91.12461   178.59466     3.86333    88.87539   181.40534     3.86333
    38.00000    91.12461   178.59464     3.86333    88.87539   181.40536     3.86333
    38.10000    91.12462   178.59463     3.86332    88.87538   181.40537     3.86332
    38.20000    91.12462   178.59462     3.86332    88.87538   181.40538     3.86332
    38.30000    91.12463   178.59460     3.86331    88.87537   181.40540     3.86331
    38.40000    91.12463   178.59459     3.86331    88.87537   181.40541     3.86331
    38.50000    91.12463   178.59457     3.86330    88.87537   181.40543     3.86330
    38.60000    91.12464   178.59456     3.86330    88.87536   181.40544     3.86330
    38.70000    91.12464   178.59455     3.86329    88.87536   181.40545     3.86329
    38.80000    91.12465   178.59453     3.86328    88.87535   181.40547     3.86328
    38.90000    91.12465   178.59452     3.86328    88.87535   181.40548     3.86328
    39.00000    91.12466   178.59450     3.86327    88.87534   181.40550     3.86327
    39.10000    91.12466   178.59449     3.86327    88.87534   181.40551     3.86327
    39.20000    91.12466   178.59448     3.86326    88.87534   181.40552     3.86326
    39.30000    91.12467   178.59446     3.86326    88.87533   181.40554     3.86326
    39.40000    91.12467   178.59445     3.86325    88.87533   181.40555     3.86325
    39.50000    91.12468   178.59443     3.86324    88.87532   181.40557     3.86324
    39.60000    91.12468   178.59442     3.86324    88.87532   181.40558     3.86324
    39.70000    91.12468   178.59441     3.86323    88.87532   181.40559     3.86323
    39.80000    91.12469   178.59439     3.86323    88.87531   181.40561     3.86323
    39.90000    91.12469   178.59438     3.86322    88.87531   181.40562     3.86322
    40.00000    91.12470   178.59436     3.86322    88.87530   181.40564     3.86322
