 # applied field (T), theta (degree), phi (degree), abs for RE 1-2
     0.00000    90.00000    45.39726     0.30383    90.00000    45.39726     0.30383
     0.10000    90.10890    45.39727     0.30383    90.10890    45.39727     0.30383
     0.20000    90.25738    44.60273     0.30385    90.25738    44.60273     0.30385
     0.30000    90.36620    44.60273     0.30387    90.36620    44.60273     0.30387
     0.40000    90.51452    45.39728     0.30391    90.51452    45.39728     0.30391
     0.50000    90.62317    44.60271     0.30394    90.62317    44.60271     0.30394
     0.60000    90.77121    44.60270     0.30400    90.77121    44.60270     0.30400
     0.70000    90.87958    45.39731     0.30405    90.87958    45.39731     0.30405
     0.80000    90.98780    45.39732     0.30411    90.98780    45.39732     0.30411
     0.90000    91.13520    44.60266     0.30420    91.13520    44.60266     0.30420
     1.00000    91.24300    44.60265     0.30428    91.24300    44.60265     0.30428
     1.10000    91.38979    44.60263     0.30439    91.38979    44.60263     0.30439
     1.20000    91.49707    45.39739     0.30448    91.49707    45.39739     0.30448
     1.30000    91.60409    45.39741     0.30458    91.60409    45.39741     0.30458
     1.40000    91.74980    45.39744     0.30472    91.74980    45.39744     0.30472
     1.50000    91.85616    45.39746     0.30484    91.85616    45.39746     0.30484
     1.60000    92.00096    45.39749     0.30500    92.00096    45.39749     0.30500
     1.70000    92.10655    44.60248     0.30514    92.10655    44.60248     0.30514
     1.80000    92.21179    45.39755     0.30528    92.21179    45.39755     0.30528
     1.90000    92.35506    45.39758     0.30547    92.35506    45.39758     0.30547
     2.00000    92.45940    44.60239     0.30562    92.45940    44.60239     0.30562
     2.10000    92.60147    44.60235     0.30584    92.60147    44.60235     0.30584
     2.20000    92.70481    45.39769     0.30601    92.70481    45.39769     0.30601
     2.30000    92.80768    44.60228     0.30619    92.80768    44.60228     0.30619
     2.40000    92.94781    44.60223     0.30643    92.94781    44.60223     0.30643
     2.50000    93.04955    44.60219     0.30662    93.04955    44.60219     0.30662
     2.60000    93.15078    45.39785     0.30683    93.15078    45.39785     0.30683
     2.70000    93.28875    45.00000     0.30710    93.28875    45.00000     0.30710
     2.80000    93.38872    45.00000     0.30732    93.38872    45.00000     0.30732
     2.90000    93.48810    45.00000     0.30754    93.48810    45.00000     0.30754
     3.00000    93.62362    45.00000     0.30784    93.62362    45.00000     0.30784
     3.10000    93.72162    45.00000     0.30808    93.72162    45.00000     0.30808
     3.20000    93.85531    45.00000     0.30840    93.85531    45.00000     0.30840
     3.30000    93.95185    45.00000     0.30865    93.95185    45.00000     0.30865
     3.40000    94.04771    45.00000     0.30892    94.04771    45.00000     0.30892
     3.50000    94.14289    45.00000     0.30919    94.14289    45.00000     0.30919
     3.60000    94.27287    45.00000     0.30954    94.27287    45.00000     0.30954
     3.70000    94.36643    45.00000     0.30983    94.36643    45.00000     0.30983
     3.80000    94.45924    45.00000     0.31012    94.45924    45.00000     0.31012
     3.90000    94.58614    45.00000     0.31050    94.58614    45.00000     0.31050
     4.00000    94.67722    45.00000     0.31080    94.67722    45.00000     0.31080
     4.10000    94.76750    45.00000     0.31112    94.76750    45.00000     0.31112
     4.20000    94.89106    44.59350     0.31153    94.89106    44.59350     0.31153
     4.30000    94.97950    44.59344     0.31185    94.97950    44.59344     0.31185
     4.40000    95.06711    44.59337     0.31218    95.06711    44.59337     0.31218
     4.50000    95.15387    44.59330     0.31252    95.15387    44.59330     0.31252
     4.60000    95.27289    45.40678     0.31297    95.27289    45.40678     0.31297
     4.70000    95.35767    44.59315     0.31332    95.35767    44.59315     0.31332
     4.80000    95.44156    44.59308     0.31368    95.44156    44.59308     0.31368
     4.90000    95.52454    44.59300     0.31404    95.52454    44.59300     0.31404
     5.00000    95.60660    45.40707     0.31441    95.60660    45.40707     0.31441
     5.10000    95.71954    44.59284     0.31490    95.71954    44.59284     0.31490
     5.20000    95.79947    44.59276     0.31528    95.79947    44.59276     0.31528
     5.30000    95.87851    45.00000     0.31567    95.87851    45.00000     0.31567
     5.40000    95.95651    45.00000     0.31607    95.95651    45.00000     0.31607
     5.50000    96.03353    45.00000     0.31647    96.03353    45.00000     0.31647
     5.60000    96.13995    45.00000     0.31700    96.13995    45.00000     0.31700
     5.70000    96.21469    45.00000     0.31741    96.21469    45.00000     0.31741
     5.80000    96.28842    45.00000     0.31783    96.28842    45.00000     0.31783
     5.90000    96.36111    45.00000     0.31826    96.36111    45.00000     0.31826
     6.00000    96.43277    45.00000     0.31869    96.43277    45.00000     0.31869
     6.10000    96.50338    45.00000     0.31912    96.50338    45.00000     0.31912
     6.20000    96.57293    45.00000     0.31957    96.57293    45.00000     0.31957
     6.30000    96.66963    45.41627     0.32014    96.66963    45.41627     0.32014
     6.40000    96.73673    44.58363     0.32060    96.73673    44.58363     0.32060
     6.50000    96.80274    45.41646     0.32106    96.80274    45.41646     0.32106
     6.60000    96.86765    44.58345     0.32152    96.86765    44.58345     0.32152
     6.70000    96.93144    44.58335     0.32199    96.93144    44.58335     0.32199
     6.80000    96.99412    44.58326     0.32246    96.99412    44.58326     0.32246
     6.90000    97.05567    45.41684     0.32294    97.05567    45.41684     0.32294
     7.00000    97.11609    44.58307     0.32343    97.11609    44.58307     0.32343
     7.10000    97.17544    45.00000     0.32392    97.17544    45.00000     0.32392
     7.20000    97.23357    45.00000     0.32441    97.23357    45.00000     0.32441
     7.30000    97.29053    45.00000     0.32491    97.29053    45.00000     0.32491
     7.40000    97.34632    45.00000     0.32542    97.34632    45.00000     0.32542
     7.50000    97.40094    45.00000     0.32593    97.40094    45.00000     0.32593
     7.60000    97.45438    45.00000     0.32644    97.45438    45.00000     0.32644
     7.70000    97.50663    45.00000     0.32696    97.50663    45.00000     0.32696
     7.80000    97.53409    45.00000     0.32733    97.53409    45.00000     0.32733
     7.90000    97.60744    44.57371     0.32801    97.60744    44.57371     0.32801
     8.00000    97.65608    45.42640     0.32854    97.65608    45.42640     0.32854
     8.10000    97.70351    44.57350     0.32908    97.70351    44.57350     0.32908
     8.20000    97.74972    45.42661     0.32962    97.74972    45.42661     0.32962
     8.30000    97.79470    45.42672     0.33016    97.79470    45.42672     0.33016
     8.40000    97.83844    45.42684     0.33071    97.83844    45.42684     0.33071
     8.50000    97.90221    45.00000     0.33142    97.90221    45.00000     0.33142
     8.60000    97.90140    45.00000     0.33166    97.90140    45.00000     0.33166
     8.70000    97.94176    45.00000     0.33222    97.94176    45.00000     0.33222
     8.80000    97.98087    45.00000     0.33278    97.98087    45.00000     0.33278
     8.90000    98.01871    45.00000     0.33335    98.01871    45.00000     0.33335
     9.00000    98.05530    45.00000     0.33392    98.05530    45.00000     0.33392
     9.10000    98.07134    45.00000     0.33434    98.07134    45.00000     0.33434
     9.20000    98.10573    45.00000     0.33491    98.10573    45.00000     0.33491
     9.30000    98.13875    45.43663     0.33550    98.13875    45.43663     0.33550
     9.40000    98.17059    45.43675     0.33608    98.17059    45.43675     0.33608
     9.50000    98.20115    44.56313     0.33667    98.20115    44.56313     0.33667
     9.60000    98.21279    44.56304     0.33709    98.21279    44.56304     0.33709
     9.70000    98.24113    44.56292     0.33769    98.24113    44.56292     0.33769
     9.80000    98.26817    44.56279     0.33829    98.26817    44.56279     0.33829
     9.90000    98.29403    45.00000     0.33889    98.29403    45.00000     0.33889
    10.00000    98.30216    45.00000     0.33932    98.30216    45.00000     0.33932
    10.10000    98.32566    45.00000     0.33993    98.32566    45.00000     0.33993
    10.20000    98.34785    45.00000     0.34054    98.34785    45.00000     0.34054
    10.30000    98.35340    45.00000     0.34098    98.35340    45.00000     0.34098
    10.40000    98.37333    45.00000     0.34160    98.37333    45.00000     0.34160
    10.50000    98.37723    45.00000     0.34204    98.37723    45.00000     0.34204
    10.60000    98.39478    44.55267     0.34266    98.39478    44.55267     0.34266
    10.70000    98.41112    45.44746     0.34329    98.41112    45.44746     0.34329
    10.80000    98.42614    44.55241     0.34391    98.42614    44.55241     0.34391
    10.90000    98.42646    44.55231     0.34436    98.42646    44.55231     0.34436
    11.00000    98.43920    45.44782     0.34500    98.43920    45.44782     0.34500
    11.10000    98.45073    45.00000     0.34563    98.45073    45.00000     0.34563
    11.20000    98.44842    45.00000     0.34609    98.44842    45.00000     0.34609
    11.30000    98.45753    45.00000     0.34673    98.45753    45.00000     0.34673
    11.40000    98.45354    45.00000     0.34719    98.45354    45.00000     0.34719
    11.50000    98.46036    45.00000     0.34783    98.46036    45.00000     0.34783
    11.60000    98.45469    45.00000     0.34829    98.45469    45.00000     0.34829
    11.70000    98.44832    45.00000     0.34875    98.44832    45.00000     0.34875
    11.80000    98.45173    45.45840     0.34941    98.45173    45.45840     0.34941
    11.90000    98.45392    45.45854     0.35006    98.45392    45.45854     0.35006
    12.00000    98.44489    44.54136     0.35053    98.44489    44.54136     0.35053
    12.10000    98.44477    44.54122     0.35118    98.44477    44.54122     0.35118
    12.20000    98.43404    44.54111     0.35165    98.43404    44.54111     0.35165
    12.30000    98.43173    45.00000     0.35231    98.43173    45.00000     0.35231
    12.40000    98.41931    45.00000     0.35279    98.41931    45.00000     0.35279
    12.50000    98.40618    45.00000     0.35326    98.40618    45.00000     0.35326
    12.60000    98.40044    45.00000     0.35393    98.40044    45.00000     0.35393
    12.70000    98.38561    45.00000     0.35440    98.38561    45.00000     0.35440
    12.80000    98.37754    45.00000     0.35507    98.37754    45.00000     0.35507
    12.90000    98.36089    44.53018     0.35555    98.36089    44.53018     0.35555
    13.00000    98.34365    44.53007     0.35603    98.34365    44.53007     0.35603
    13.10000    98.33226    45.47008     0.35670    98.33226    45.47008     0.35670
    13.20000    98.31333    45.47018     0.35718    98.31333    45.47018     0.35718
    13.30000    98.29367    44.52971     0.35766    98.29367    44.52971     0.35766
    13.40000    98.28467    45.00000     0.35854    98.28467    45.00000     0.35854
    13.50000    98.25773    45.00000     0.35883    98.25773    45.00000     0.35883
    13.60000    98.23565    45.00000     0.35931    98.23565    45.00000     0.35931
    13.70000    98.21286    45.00000     0.35980    98.21286    45.00000     0.35980
    13.80000    98.19384    45.00000     0.36048    98.19384    45.00000     0.36048
    13.90000    98.16934    45.00000     0.36097    98.16934    45.00000     0.36097
    14.00000    98.14014    45.00000     0.36126    98.14014    45.00000     0.36126
    14.10000    98.11804    44.51818     0.36194    98.11804    44.51818     0.36194
    14.20000    98.09471    45.48197     0.36263    98.09471    45.48197     0.36263
    14.30000    98.06706    45.48208     0.36312    98.06706    45.48208     0.36312
    14.40000    98.03869    45.48219     0.36361    98.03869    45.48219     0.36361
    14.50000    98.00959    44.51770     0.36410    98.00959    44.51770     0.36410
    14.60000    97.97991    45.00000     0.36459    97.97991    45.00000     0.36459
    14.70000    97.95129    45.00000     0.36529    97.95129    45.00000     0.36529
    14.80000    97.91976    45.00000     0.36578    97.91976    45.00000     0.36578
    14.90000    97.88751    45.00000     0.36627    97.88751    45.00000     0.36627
    15.00000    97.85454    45.00000     0.36677    97.85454    45.00000     0.36677
    15.10000    97.82001    45.00000     0.36706    97.82001    45.00000     0.36706
    15.20000    97.78630    44.50577     0.36776    97.78630    44.50577     0.36776
    15.30000    97.75116    45.49434     0.36825    97.75116    45.49434     0.36825
    15.40000    97.71530    45.49446     0.36875    97.71530    45.49446     0.36875
    15.50000    97.67872    45.49457     0.36924    97.67872    45.49457     0.36924
    15.60000    97.64141    45.49469     0.36974    97.64141    45.49469     0.36974
    15.70000    97.60352    45.00000     0.37024    97.60352    45.00000     0.37024
    15.80000    97.56477    45.00000     0.37073    97.56477    45.00000     0.37073
    15.90000    97.52530    45.00000     0.37123    97.52530    45.00000     0.37123
    16.00000    97.48510    45.00000     0.37173    97.48510    45.00000     0.37173
    16.10000    97.44417    45.00000     0.37222    97.44417    45.00000     0.37222
    16.20000    97.40253    45.00000     0.37272    97.40253    45.00000     0.37272
    16.30000    97.36001    44.49285     0.37322    97.36001    44.49285     0.37322
    16.40000    97.31691    45.50726     0.37372    97.31691    45.50726     0.37372
    16.50000    97.27309    44.49262     0.37422    97.27309    44.49262     0.37422
    16.60000    97.22855    45.50750     0.37472    97.22855    45.50750     0.37472
    16.70000    97.18328    44.49239     0.37521    97.18328    44.49239     0.37521
    16.80000    97.13743    45.00000     0.37571    97.13743    45.00000     0.37571
    16.90000    97.09071    45.00000     0.37621    97.09071    45.00000     0.37621
    17.00000    97.04327    45.00000     0.37671    97.04327    45.00000     0.37671
    17.10000    96.99510    45.00000     0.37721    96.99510    45.00000     0.37721
    17.20000    96.94621    45.00000     0.37771    96.94621    45.00000     0.37771
    17.30000    96.90159    45.00000     0.37800    96.90159    45.00000     0.37800
    17.40000    96.85136    45.52064     0.37850    96.85136    45.52064     0.37850
    17.50000    96.80055    44.47924     0.37900    96.80055    44.47924     0.37900
    17.60000    96.74902    44.47912     0.37950    96.74902    44.47912     0.37950
    17.70000    96.69676    44.47900     0.38000    96.69676    44.47900     0.38000
    17.80000    96.63759    45.00000     0.38070    96.63759    45.00000     0.38070
    17.90000    96.59671    45.00000     0.38079    96.59671    45.00000     0.38079
    18.00000    96.54254    45.00000     0.38129    96.54254    45.00000     0.38129
    18.10000    96.48763    45.00000     0.38179    96.48763    45.00000     0.38179
    18.20000    96.43201    45.00000     0.38229    96.43201    45.00000     0.38229
    18.30000    96.38311    45.00000     0.38258    96.38311    45.00000     0.38258
    18.40000    96.32629    45.00000     0.38308    96.32629    45.00000     0.38308
    18.50000    96.26858    45.53476     0.38358    96.26858    45.53476     0.38358
    18.60000    96.21031    45.53488     0.38408    96.21031    45.53488     0.38408
    18.70000    96.15973    44.46504     0.38437    96.15973    44.46504     0.38437
    18.80000    96.10025    44.46492     0.38487    96.10025    44.46492     0.38487
    18.90000    96.04006    44.46480     0.38536    96.04006    44.46480     0.38536
    19.00000    95.98841    45.00000     0.38566    95.98841    45.00000     0.38566
    19.10000    95.92701    45.00000     0.38615    95.92701    45.00000     0.38615
    19.20000    95.86489    45.00000     0.38665    95.86489    45.00000     0.38665
    19.30000    95.81185    45.00000     0.38694    95.81185    45.00000     0.38694
    19.40000    95.74853    45.00000     0.38744    95.74853    45.00000     0.38744
    19.50000    95.69473    45.00000     0.38773    95.69473    45.00000     0.38773
    19.60000    95.63005    45.54950     0.38822    95.63005    45.54950     0.38822
    19.70000    95.56480    45.54962     0.38872    95.56480    45.54962     0.38872
    19.80000    95.50977    45.54970     0.38901    95.50977    45.54970     0.38901
    19.90000    95.44331    44.45018     0.38950    95.44331    44.45018     0.38950
    20.00000    95.37612    44.45005     0.38999    95.37612    44.45005     0.38999
    20.10000    95.32002    45.00000     0.39029    95.32002    45.00000     0.39029
    20.20000    95.25163    45.00000     0.39078    95.25163    45.00000     0.39078
    20.30000    95.19459    45.00000     0.39107    95.19459    45.00000     0.39107
    20.40000    95.12499    45.00000     0.39156    95.12499    45.00000     0.39156
    20.50000    95.06719    45.00000     0.39185    95.06719    45.00000     0.39185
    20.60000    94.99638    45.00000     0.39234    94.99638    45.00000     0.39234
    20.70000    94.93764    44.43506     0.39263    94.93764    44.43506     0.39263
    20.80000    94.86562    44.43493     0.39312    94.86562    44.43493     0.39312
    20.90000    94.80627    44.43485     0.39341    94.80627    44.43485     0.39341
    21.00000    94.73305    45.56527     0.39389    94.73305    45.56527     0.39389
    21.10000    94.67292    45.56535     0.39418    94.67292    45.56535     0.39418
    21.20000    94.59864    45.00000     0.39467    94.59864    45.00000     0.39467
    21.30000    94.53774    45.00000     0.39495    94.53774    45.00000     0.39495
    21.40000    94.47653    45.00000     0.39524    94.47653    45.00000     0.39524
    21.50000    94.40039    45.00000     0.39573    94.40039    45.00000     0.39573
    21.60000    94.33840    45.00000     0.39601    94.33840    45.00000     0.39601
    21.70000    94.26105    45.00000     0.39650    94.26105    45.00000     0.39650
    21.80000    94.21350    45.00000     0.39658    94.21350    45.00000     0.39658
    21.90000    94.13503    45.58123     0.39707    94.13503    45.58123     0.39707
    22.00000    94.05597    45.58136     0.39755    94.05597    45.58136     0.39755
    22.10000    93.99211    44.41856     0.39783    93.99211    44.41856     0.39783
    22.20000    93.92794    44.41847     0.39812    93.92794    44.41847     0.39812
    22.30000    93.83097    45.00000     0.39879    93.83097    45.00000     0.39879
    22.40000    93.78238    45.00000     0.39888    93.78238    45.00000     0.39888
    22.50000    93.71711    45.00000     0.39916    93.71711    45.00000     0.39916
    22.60000    93.63464    45.00000     0.39964    93.63464    45.00000     0.39964
    22.70000    93.56857    45.00000     0.39992    93.56857    45.00000     0.39992
    22.80000    93.50220    45.00000     0.40020    93.50220    45.00000     0.40020
    22.90000    93.41800    45.00000     0.40068    93.41800    45.00000     0.40068
    23.00000    93.35066    45.59827     0.40096    93.35066    45.59827     0.40096
    23.10000    93.28318    44.40165     0.40124    93.28318    44.40165     0.40124
    23.20000    93.19725    44.40152     0.40171    93.19725    44.40152     0.40171
    23.30000    93.12897    45.59856     0.40199    93.12897    45.59856     0.40199
    23.40000    93.06037    45.59865     0.40227    93.06037    45.59865     0.40227
    23.50000    92.97289    45.00000     0.40274    92.97289    45.00000     0.40274
    23.60000    92.92241    45.00000     0.40283    92.92241    45.00000     0.40283
    23.70000    92.83377    45.00000     0.40330    92.83377    45.00000     0.40330
    23.80000    92.76373    45.00000     0.40357    92.76373    45.00000     0.40357
    23.90000    92.69338    45.00000     0.40385    92.69338    45.00000     0.40385
    24.00000    92.62271    45.00000     0.40413    92.62271    45.00000     0.40413
    24.10000    92.55173    45.00000     0.40440    92.55173    45.00000     0.40440
    24.20000    92.46017    44.38371     0.40487    92.46017    44.38371     0.40487
    24.30000    92.38837    44.38363     0.40514    92.38837    44.38363     0.40514
    24.40000    92.31625    45.61646     0.40542    92.31625    45.61646     0.40542
    24.50000    92.24381    45.61654     0.40569    92.24381    45.61654     0.40569
    24.60000    92.17105    45.61663     0.40596    92.17105    45.61663     0.40596
    24.70000    92.07709    45.00000     0.40642    92.07709    45.00000     0.40642
    24.80000    92.02473    45.00000     0.40651    92.02473    45.00000     0.40651
    24.90000    91.92959    45.00000     0.40697    91.92959    45.00000     0.40697
    25.00000    91.85536    45.00000     0.40724    91.85536    45.00000     0.40724
    25.10000    91.78080    45.00000     0.40751    91.78080    45.00000     0.40751
    25.20000    91.70591    45.00000     0.40778    91.70591    45.00000     0.40778
    25.30000    91.63070    45.00000     0.40805    91.63070    45.00000     0.40805
    25.40000    91.55498    44.36476     0.40831    91.55498    44.36476     0.40831
    25.50000    91.47912    45.63532     0.40858    91.47912    45.63532     0.40858
    25.60000    91.40292    44.36459     0.40885    91.40292    44.36459     0.40885
    25.70000    91.32640    44.36451     0.40912    91.32640    44.36451     0.40912
    25.80000    91.24955    44.36442     0.40938    91.24955    44.36442     0.40938
    25.90000    91.14924    45.00000     0.40984    91.14924    45.00000     0.40984
    26.00000    91.09502    45.00000     0.40992    91.09502    45.00000     0.40992
    26.10000    91.01717    45.00000     0.41018    91.01717    45.00000     0.41018
    26.20000    90.93899    45.00000     0.41044    90.93899    45.00000     0.41044
    26.30000    90.86048    45.00000     0.41071    90.86048    45.00000     0.41071
    26.40000    90.78162    45.00000     0.41097    90.78162    45.00000     0.41097
    26.50000    90.70244    45.00000     0.41124    90.70244    45.00000     0.41124
    26.60000    90.64739    45.00000     0.41131    90.64739    45.00000     0.41131
    26.70000    90.54287    44.34466     0.41176    90.54287    44.34466     0.41176
    26.80000    90.46267    45.65542     0.41202    90.46267    45.65542     0.41202
    26.90000    90.38213    45.65551     0.41228    90.38213    45.65551     0.41228
    27.00000    90.30125    44.34440     0.41254    90.30125    44.34440     0.41254
    27.10000    90.22003    45.65568     0.41280    90.22003    45.65568     0.41280
    27.20000    90.13865    45.00000     0.41306    90.13865    45.00000     0.41306
    27.30000    90.05675    45.00000     0.41332    90.05675    45.00000     0.41332
    27.40000    89.97450    45.00000     0.41358    89.97450    45.00000     0.41358
    27.50000    89.89190    45.00000     0.41383    89.89190    45.00000     0.41383
    27.60000    89.80896    45.00000     0.41409    89.80896    45.00000     0.41409
    27.70000    89.72568    45.00000     0.41435    89.72568    45.00000     0.41435
    27.80000    89.66875    45.00000     0.41442    89.66875    45.00000     0.41442
    27.90000    89.58476    44.32348     0.41467    89.58476    44.32348     0.41467
    28.00000    89.50062    44.32340     0.41493    89.50062    44.32340     0.41493
    28.10000    89.41612    44.32331     0.41518    89.41612    44.32331     0.41518
    28.20000    89.33128    45.67678     0.41544    89.33128    45.67678     0.41544
    28.30000    89.24608    45.67686     0.41569    89.24608    45.67686     0.41569
    28.40000    89.16052    45.67695     0.41594    89.16052    45.67695     0.41594
    28.50000    89.10273    45.00000     0.41601    89.10273    45.00000     0.41601
    28.60000    89.01666    45.00000     0.41627    89.01666    45.00000     0.41627
    28.70000    88.93023    45.00000     0.41652    88.93023    45.00000     0.41652
    28.80000    88.84344    45.00000     0.41677    88.84344    45.00000     0.41677
    28.90000    88.75629    45.00000     0.41702    88.75629    45.00000     0.41702
    29.00000    88.66878    45.00000     0.41726    88.66878    45.00000     0.41726
    29.10000    88.60989    45.00000     0.41734    88.60989    45.00000     0.41734
    29.20000    88.52167    44.30094     0.41758    88.52167    44.30094     0.41758
    29.30000    88.43326    45.69915     0.41783    88.43326    45.69915     0.41783
    29.40000    88.34450    45.69923     0.41808    88.34450    45.69923     0.41808
    29.50000    88.28503    44.30072     0.41815    88.28503    44.30072     0.41815
    29.60000    88.19572    45.69936     0.41839    88.19572    45.69936     0.41839
    29.70000    88.10605    44.30055     0.41864    88.10605    44.30055     0.41864
    29.80000    88.01620    45.00000     0.41888    88.01620    45.00000     0.41888
    29.90000    87.95613    45.00000     0.41895    87.95613    45.00000     0.41895
    30.00000    87.86554    45.00000     0.41919    87.86554    45.00000     0.41919
    30.10000    87.77458    45.00000     0.41944    87.77458    45.00000     0.41944
    30.20000    87.68325    45.00000     0.41968    87.68325    45.00000     0.41968
    30.30000    87.62258    45.00000     0.41975    87.62258    45.00000     0.41975
    30.40000    87.53069    45.00000     0.41999    87.53069    45.00000     0.41999
    30.50000    87.46976    45.00000     0.42006    87.46976    45.00000     0.42006
    30.60000    87.37713    45.72305     0.42030    87.37713    45.72305     0.42030
    30.70000    87.28431    44.27686     0.42054    87.28431    44.27686     0.42054
    30.80000    87.19110    45.72323     0.42077    87.19110    45.72323     0.42077
    30.90000    87.09751    44.27669     0.42101    87.09751    44.27669     0.42101
    31.00000    87.03579    45.72336     0.42108    87.03579    45.72336     0.42108
    31.10000    86.94163    44.27656     0.42132    86.94163    44.27656     0.42132
    31.20000    86.84728    45.00000     0.42155    86.84728    45.00000     0.42155
    31.30000    86.78510    45.00000     0.42162    86.78510    45.00000     0.42162
    31.40000    86.68999    45.00000     0.42185    86.68999    45.00000     0.42185
    31.50000    86.62754    45.00000     0.42192    86.62754    45.00000     0.42192
    31.60000    86.53185    45.00000     0.42215    86.53185    45.00000     0.42215
    31.70000    86.43576    45.00000     0.42239    86.43576    45.00000     0.42239
    31.80000    86.37285    45.00000     0.42245    86.37285    45.00000     0.42245
    31.90000    86.30986    45.00000     0.42252    86.30986    45.00000     0.42252
    32.00000    86.17892    44.25136     0.42292    86.17892    44.25136     0.42292
    32.10000    86.11555    45.74868     0.42298    86.11555    45.74868     0.42298
    32.20000    86.01789    45.74877     0.42321    86.01789    45.74877     0.42321
    32.30000    85.95424    45.74881     0.42327    85.95424    45.74881     0.42327
    32.40000    85.85599    45.74890     0.42350    85.85599    45.74890     0.42350
    32.50000    85.75733    44.25101     0.42373    85.75733    44.25101     0.42373
    32.60000    85.65845    45.00000     0.42396    85.65845    45.00000     0.42396
    32.70000    85.59413    45.00000     0.42402    85.59413    45.00000     0.42402
    32.80000    85.52972    45.00000     0.42409    85.52972    45.00000     0.42409
    32.90000    85.42985    45.00000     0.42431    85.42985    45.00000     0.42431
    33.00000    85.36515    45.00000     0.42438    85.36515    45.00000     0.42438
    33.10000    85.26467    45.00000     0.42460    85.26467    45.00000     0.42460
    33.20000    85.19968    45.00000     0.42467    85.19968    45.00000     0.42467
    33.30000    85.09859    45.00000     0.42489    85.09859    45.00000     0.42489
    33.40000    84.99687    45.77590     0.42511    84.99687    45.77590     0.42511
    33.50000    84.93139    45.77594     0.42517    84.93139    45.77594     0.42517
    33.60000    84.82925    44.22397     0.42540    84.82925    44.22397     0.42540
    33.70000    84.76347    44.22393     0.42546    84.76347    44.22393     0.42546
    33.80000    84.66070    44.22384     0.42568    84.66070    44.22384     0.42568
    33.90000    84.59462    44.22379     0.42574    84.59462    44.22379     0.42574
    34.00000    84.49121    44.22371     0.42596    84.49121    44.22371     0.42596
    34.10000    84.38757    45.00000     0.42618    84.38757    45.00000     0.42618
    34.20000    84.32097    45.00000     0.42624    84.32097    45.00000     0.42624
    34.30000    84.25428    45.00000     0.42630    84.25428    45.00000     0.42630
    34.40000    84.14959    45.00000     0.42652    84.14959    45.00000     0.42652
    34.50000    84.08259    45.00000     0.42658    84.08259    45.00000     0.42658
    34.60000    84.01549    45.00000     0.42664    84.01549    45.00000     0.42664
    34.70000    83.90994    45.00000     0.42685    83.90994    45.00000     0.42685
    34.80000    83.84252    45.00000     0.42691    83.84252    45.00000     0.42691
    34.90000    83.77501    45.00000     0.42697    83.77501    45.00000     0.42697
    35.00000    83.66838    44.19485     0.42719    83.66838    44.19485     0.42719
    35.10000    83.56151    44.19476     0.42740    83.56151    44.19476     0.42740
    35.20000    83.49346    45.80529     0.42746    83.49346    45.80529     0.42746
    35.30000    83.38592    44.19462     0.42767    83.38592    44.19462     0.42767
    35.40000    83.31755    44.19458     0.42773    83.31755    44.19458     0.42773
    35.50000    83.24907    44.19454     0.42779    83.24907    44.19454     0.42779
    35.60000    83.14063    44.19445     0.42800    83.14063    44.19445     0.42800
    35.70000    83.07202    45.00000     0.42806    83.07202    45.00000     0.42806
    35.80000    82.96290    45.00000     0.42827    82.96290    45.00000     0.42827
    35.90000    82.89376    45.00000     0.42832    82.89376    45.00000     0.42832
    36.00000    82.82452    45.00000     0.42838    82.82452    45.00000     0.42838
    36.10000    82.71448    45.00000     0.42859    82.71448    45.00000     0.42859
    36.20000    82.64490    45.00000     0.42865    82.64490    45.00000     0.42865
    36.30000    82.53416    45.00000     0.42885    82.53416    45.00000     0.42885
    36.40000    82.46425    45.00000     0.42891    82.46425    45.00000     0.42891
    36.50000    82.39402    45.83649     0.42896    82.39402    45.83649     0.42896
    36.60000    82.28235    44.16342     0.42917    82.28235    44.16342     0.42917
    36.70000    82.21198    44.16337     0.42923    82.21198    44.16337     0.42923
    36.80000    82.14150    44.16333     0.42928    82.14150    44.16333     0.42928
    36.90000    82.02887    45.83676     0.42949    82.02887    45.83676     0.42949
    37.00000    81.95805    45.83681     0.42954    81.95805    45.83681     0.42954
    37.10000    81.84469    44.16310     0.42974    81.84469    44.16310     0.42974
    37.20000    81.77352    44.16306     0.42980    81.77352    44.16306     0.42980
    37.30000    81.70242    45.00000     0.42985    81.70242    45.00000     0.42985
    37.40000    81.58810    45.00000     0.43005    81.58810    45.00000     0.43005
    37.50000    81.51645    45.00000     0.43011    81.51645    45.00000     0.43011
    37.60000    81.44468    45.00000     0.43016    81.44468    45.00000     0.43016
    37.70000    81.37280    45.00000     0.43021    81.37280    45.00000     0.43021
    37.80000    81.25724    45.00000     0.43041    81.25724    45.00000     0.43041
    37.90000    81.18500    45.00000     0.43047    81.18500    45.00000     0.43047
    38.00000    81.11263    45.00000     0.43052    81.11263    45.00000     0.43052
    38.10000    81.04015    45.00000     0.43057    81.04015    45.00000     0.43057
    38.20000    80.92313    45.87035     0.43077    80.92313    45.87035     0.43077
    38.30000    80.85028    45.87040     0.43082    80.85028    45.87040     0.43082
    38.40000    80.73270    45.87049     0.43102    80.73270    45.87049     0.43102
    38.50000    80.65947    44.12947     0.43107    80.65947    44.12947     0.43107
    38.60000    80.58612    44.12942     0.43112    80.58612    44.12942     0.43112
    38.70000    80.51265    44.12938     0.43118    80.51265    44.12938     0.43118
    38.80000    80.39378    44.12929     0.43137    80.39378    44.12929     0.43137
    38.90000    80.31992    44.12925     0.43142    80.31992    44.12925     0.43142
    39.00000    80.24614    45.00000     0.43147    80.24614    45.00000     0.43147
    39.10000    80.17203    45.00000     0.43152    80.17203    45.00000     0.43152
    39.20000    80.05184    45.00000     0.43172    80.05184    45.00000     0.43172
    39.30000    79.97735    45.00000     0.43177    79.97735    45.00000     0.43177
    39.40000    79.90272    45.00000     0.43182    79.90272    45.00000     0.43182
    39.50000    79.82797    45.00000     0.43187    79.82797    45.00000     0.43187
    39.60000    79.70644    45.00000     0.43206    79.70644    45.00000     0.43206
    39.70000    79.63129    45.00000     0.43211    79.63129    45.00000     0.43211
    39.80000    79.55601    45.00000     0.43216    79.55601    45.00000     0.43216
    39.90000    79.48039    44.09316     0.43221    79.48039    44.09316     0.43221
    40.00000    79.35750    45.90693     0.43240    79.35750    45.90693     0.43240
