 # applied field (T), theta (degree), phi (degree), abs for RE 3-4
     0.00000     0.40476   135.00000     3.94481     0.40476    45.00000     3.94481
     0.10000     0.47295    34.44792     3.94523     1.00974    17.59077     3.94486
     0.20000     1.09515    13.13717     3.94556     1.67063    11.18961     3.94482
     0.30000     1.75844     7.52677     3.94582     2.34062     8.43439     3.94471
     0.40000     2.42975     5.00096     3.94598     3.01381     6.90870     3.94452
     0.50000     3.10422     3.57034     3.94607     3.68861     5.94161     3.94425
     0.60000     3.78049     2.65084     3.94607     4.36447     5.27466     3.94391
     0.70000     4.45807     2.01049     3.94598     5.04119     4.78739     3.94349
     0.80000     5.13677     1.53912     3.94580     5.71866     4.41617     3.94300
     0.90000     5.81651     1.17772     3.94554     6.39688     4.12423     3.94243
     1.00000     6.49728     0.89187     3.94518     7.07587     3.88884     3.94180
     1.10000     7.17910     0.66013     3.94474     7.75566     3.69521     3.94109
     1.20000     7.91431     0.45512     3.94415     8.48843     3.52199     3.94025
     1.30000     8.59840     0.29597     3.94352     9.17003     3.38637     3.93940
     1.40000     9.33617     0.15051     3.94273     9.90487     3.26172     3.93841
     1.50000    10.02275     0.03441     3.94190    10.58851     3.16186     3.93742
     1.60000    10.76330   359.92577     3.94090    11.32569     3.06828     3.93629
     1.70000    11.50538   359.83089     3.93980    12.06417     2.98655     3.93509
     1.80000    12.24907   359.74727     3.93859    12.80402     2.91466     3.93382
     1.90000    12.99442   359.67299     3.93728    13.54532     2.85100     3.93248
     2.00000    13.79467   359.60205     3.93575    14.34100     2.79053     3.93098
     2.10000    14.54365   359.54260     3.93422    15.08549     2.74017     3.92951
     2.20000    15.34793   359.48508     3.93246    15.88472     2.69184     3.92787
     2.30000    16.15438   359.43297     3.93058    16.68589     2.64849     3.92617
     2.40000    16.96308   359.38551     3.92859    17.48907     2.60944     3.92442
     2.50000    17.77409   359.34205     3.92648    18.29430     2.57414     3.92260
     2.60000    18.64155   359.29952     3.92411    19.15533     2.54009     3.92061
     2.70000    19.51176   359.26040     3.92162    20.01883     2.50929     3.91856
     2.80000    20.38480   359.22424     3.91901    20.88485     2.48133     3.91646
     2.90000    21.31536   359.18866     3.91610    21.80761     2.45437     3.91418
     3.00000    22.24923   359.15563     3.91306    22.73333     2.42989     3.91185
     3.10000    23.18648   359.12482     3.90991    23.66203     2.40759     3.90948
     3.20000    24.18243   359.09432     3.90644    24.64847     2.38609     3.90694
     3.30000    25.18228   359.06574     3.90285    25.63833     2.36649     3.90436
     3.40000    26.24179   359.03738     3.89893    26.68673     2.34764     3.90161
     3.50000    27.36173   359.00929     3.89467    27.79430     2.32958     3.89869
     3.60000    28.48667   358.98277     3.89030    28.90611     2.31312     3.89576
     3.70000    29.67311   358.95640     3.88560    30.07791     2.29735     3.89268
     3.80000    30.92188   358.93018     3.88056    31.31031     2.28229     3.88945
     3.90000    32.23383   358.90408     3.87519    32.60394     2.26793     3.88610
     4.00000    33.66718   358.87702     3.86927    34.01588     2.25370     3.88248
     4.10000    35.16607   358.85010     3.86306    35.49072     2.24020     3.87877
     4.20000    36.73138   358.82326     3.85659    37.02900     2.22737     3.87500
     4.30000    38.48069   358.79451     3.84942    38.74571     2.21428     3.87090
     4.40000    40.35815   358.76486     3.84187    40.58530     2.20142     3.86668
     4.50000    42.48380   358.73248     3.83360    42.66442     2.18801     3.86213
     4.60000    44.92106   358.69655     3.82460    45.04367     2.17375     3.85724
     4.70000    47.79454   358.65539     3.81482    47.84282     2.15793     3.85192
     4.80000    51.41235   358.60487     3.80409    51.35935     2.13879     3.84594
     4.90000    56.45247   358.53614     3.79259    56.24904     2.11219     3.83888
     5.00000    67.80572   358.38773     3.78276    67.27042     2.04558     3.82745
     5.10000    90.42800   358.14233     3.81381    89.57200     1.85767     3.81381
     5.20000    90.42798   358.14243     3.81392    89.57202     1.85757     3.81392
     5.30000    90.42796   358.14253     3.81402    89.57204     1.85747     3.81402
     5.40000    90.42794   358.14263     3.81412    89.57206     1.85737     3.81412
     5.50000    90.42791   358.14272     3.81423    89.57209     1.85728     3.81423
     5.60000    90.42789   358.14282     3.81433    89.57211     1.85718     3.81433
     5.70000    90.42787   358.14292     3.81444    89.57213     1.85708     3.81444
     5.80000    90.42785   358.14302     3.81454    89.57215     1.85698     3.81454
     5.90000    90.42783   358.14312     3.81464    89.57217     1.85688     3.81464
     6.00000    90.42780   358.14322     3.81475    89.57220     1.85678     3.81475
     6.10000    90.42778   358.14332     3.81485    89.57222     1.85668     3.81485
     6.20000    90.42776   358.14342     3.81495    89.57224     1.85658     3.81495
     6.30000    90.42774   358.14351     3.81506    89.57226     1.85649     3.81506
     6.40000    90.42772   358.14361     3.81516    89.57228     1.85639     3.81516
     6.50000    90.42770   358.14371     3.81526    89.57230     1.85629     3.81526
     6.60000    90.42767   358.14381     3.81537    89.57233     1.85619     3.81537
     6.70000    90.42765   358.14391     3.81547    89.57235     1.85609     3.81547
     6.80000    90.42763   358.14401     3.81557    89.57237     1.85599     3.81557
     6.90000    90.42761   358.14411     3.81567    89.57239     1.85589     3.81567
     7.00000    90.42759   358.14421     3.81578    89.57241     1.85579     3.81578
     7.10000    90.42756   358.14430     3.81588    89.57244     1.85570     3.81588
     7.20000    90.42754   358.14440     3.81598    89.57246     1.85560     3.81598
     7.30000    90.42752   358.14450     3.81609    89.57248     1.85550     3.81609
     7.40000    90.42750   358.14460     3.81619    89.57250     1.85540     3.81619
     7.50000    90.42748   358.14470     3.81629    89.57252     1.85530     3.81629
     7.60000    90.42746   358.14480     3.81640    89.57254     1.85520     3.81640
     7.70000    90.42743   358.14490     3.81650    89.57257     1.85510     3.81650
     7.80000    90.42741   358.14499     3.81660    89.57259     1.85501     3.81660
     7.90000    90.42739   358.14509     3.81670    89.57261     1.85491     3.81670
     8.00000    90.42737   358.14519     3.81681    89.57263     1.85481     3.81681
     8.10000    90.42735   358.14529     3.81691    89.57265     1.85471     3.81691
     8.20000    90.42732   358.14539     3.81701    89.57268     1.85461     3.81701
     8.30000    90.42730   358.14549     3.81712    89.57270     1.85451     3.81712
     8.40000    90.42728   358.14559     3.81722    89.57272     1.85441     3.81722
     8.50000    90.42726   358.14568     3.81732    89.57274     1.85432     3.81732
     8.60000    90.42724   358.14578     3.81742    89.57276     1.85422     3.81742
     8.70000    90.42722   358.14588     3.81753    89.57278     1.85412     3.81753
     8.80000    90.42719   358.14598     3.81763    89.57281     1.85402     3.81763
     8.90000    90.42717   358.14608     3.81773    89.57283     1.85392     3.81773
     9.00000    90.42715   358.14618     3.81783    89.57285     1.85382     3.81783
     9.10000    90.42713   358.14627     3.81794    89.57287     1.85373     3.81794
     9.20000    90.42711   358.14637     3.81804    89.57289     1.85363     3.81804
     9.30000    90.42709   358.14647     3.81814    89.57291     1.85353     3.81814
     9.40000    90.42706   358.14657     3.81824    89.57294     1.85343     3.81824
     9.50000    90.42704   358.14667     3.81834    89.57296     1.85333     3.81834
     9.60000    90.42702   358.14677     3.81845    89.57298     1.85323     3.81845
     9.70000    90.42700   358.14686     3.81855    89.57300     1.85314     3.81855
     9.80000    90.42698   358.14696     3.81865    89.57302     1.85304     3.81865
     9.90000    90.42696   358.14706     3.81875    89.57304     1.85294     3.81875
    10.00000    90.42693   358.14716     3.81885    89.57307     1.85284     3.81885
    10.10000    90.42691   358.14726     3.81896    89.57309     1.85274     3.81896
    10.20000    90.42689   358.14735     3.81906    89.57311     1.85265     3.81906
    10.30000    90.42687   358.14745     3.81916    89.57313     1.85255     3.81916
    10.40000    90.42685   358.14755     3.81926    89.57315     1.85245     3.81926
    10.50000    90.42683   358.14765     3.81936    89.57317     1.85235     3.81936
    10.60000    90.42680   358.14775     3.81947    89.57320     1.85225     3.81947
    10.70000    90.42678   358.14784     3.81957    89.57322     1.85216     3.81957
    10.80000    90.42676   358.14794     3.81967    89.57324     1.85206     3.81967
    10.90000    90.42674   358.14804     3.81977    89.57326     1.85196     3.81977
    11.00000    90.42672   358.14814     3.81987    89.57328     1.85186     3.81987
    11.10000    90.42670   358.14824     3.81998    89.57330     1.85176     3.81998
    11.20000    90.42667   358.14833     3.82008    89.57333     1.85167     3.82008
    11.30000    90.42665   358.14843     3.82018    89.57335     1.85157     3.82018
    11.40000    90.42663   358.14853     3.82028    89.57337     1.85147     3.82028
    11.50000    90.42661   358.14863     3.82038    89.57339     1.85137     3.82038
    11.60000    90.42659   358.14873     3.82048    89.57341     1.85127     3.82048
    11.70000    90.42657   358.14882     3.82059    89.57343     1.85118     3.82059
    11.80000    90.42654   358.14892     3.82069    89.57346     1.85108     3.82069
    11.90000    90.42652   358.14902     3.82079    89.57348     1.85098     3.82079
    12.00000    90.42650   358.14912     3.82089    89.57350     1.85088     3.82089
    12.10000    90.42648   358.14922     3.82099    89.57352     1.85078     3.82099
    12.20000    90.42646   358.14931     3.82109    89.57354     1.85069     3.82109
    12.30000    90.42644   358.14941     3.82119    89.57356     1.85059     3.82119
    12.40000    90.42641   358.14951     3.82129    89.57359     1.85049     3.82129
    12.50000    90.42639   358.14961     3.82140    89.57361     1.85039     3.82140
    12.60000    90.42637   358.14970     3.82150    89.57363     1.85030     3.82150
    12.70000    90.42635   358.14980     3.82160    89.57365     1.85020     3.82160
    12.80000    90.42633   358.14990     3.82170    89.57367     1.85010     3.82170
    12.90000    90.42631   358.15000     3.82180    89.57369     1.85000     3.82180
    13.00000    90.42628   358.15009     3.82190    89.57372     1.84991     3.82190
    13.10000    90.42626   358.15019     3.82200    89.57374     1.84981     3.82200
    13.20000    90.42624   358.15029     3.82210    89.57376     1.84971     3.82210
    13.30000    90.42622   358.15039     3.82220    89.57378     1.84961     3.82220
    13.40000    90.42620   358.15048     3.82231    89.57380     1.84952     3.82231
    13.50000    90.42618   358.15058     3.82241    89.57382     1.84942     3.82241
    13.60000    90.42615   358.15068     3.82251    89.57385     1.84932     3.82251
    13.70000    90.42613   358.15078     3.82261    89.57387     1.84922     3.82261
    13.80000    90.42611   358.15087     3.82271    89.57389     1.84913     3.82271
    13.90000    90.42609   358.15097     3.82281    89.57391     1.84903     3.82281
    14.00000    90.42607   358.15107     3.82291    89.57393     1.84893     3.82291
    14.10000    90.42605   358.15117     3.82301    89.57395     1.84883     3.82301
    14.20000    90.42603   358.15126     3.82311    89.57397     1.84874     3.82311
    14.30000    90.42600   358.15136     3.82321    89.57400     1.84864     3.82321
    14.40000    90.42598   358.15146     3.82331    89.57402     1.84854     3.82331
    14.50000    90.42596   358.15156     3.82341    89.57404     1.84844     3.82341
    14.60000    90.42594   358.15165     3.82351    89.57406     1.84835     3.82351
    14.70000    90.42592   358.15175     3.82362    89.57408     1.84825     3.82362
    14.80000    90.42590   358.15185     3.82372    89.57410     1.84815     3.82372
    14.90000    90.42587   358.15195     3.82382    89.57413     1.84805     3.82382
    15.00000    90.42585   358.15204     3.82392    89.57415     1.84796     3.82392
    15.10000    90.42583   358.15214     3.82402    89.57417     1.84786     3.82402
    15.20000    90.42581   358.15224     3.82412    89.57419     1.84776     3.82412
    15.30000    90.42579   358.15233     3.82422    89.57421     1.84767     3.82422
    15.40000    90.42577   358.15243     3.82432    89.57423     1.84757     3.82432
    15.50000    90.42575   358.15253     3.82442    89.57425     1.84747     3.82442
    15.60000    90.42572   358.15263     3.82452    89.57428     1.84737     3.82452
    15.70000    90.42570   358.15272     3.82462    89.57430     1.84728     3.82462
    15.80000    90.42568   358.15282     3.82472    89.57432     1.84718     3.82472
    15.90000    90.42566   358.15292     3.82482    89.57434     1.84708     3.82482
    16.00000    90.42564   358.15301     3.82492    89.57436     1.84699     3.82492
    16.10000    90.42562   358.15311     3.82502    89.57438     1.84689     3.82502
    16.20000    90.42560   358.15321     3.82512    89.57440     1.84679     3.82512
    16.30000    90.42557   358.15331     3.82522    89.57443     1.84669     3.82522
    16.40000    90.42555   358.15340     3.82532    89.57445     1.84660     3.82532
    16.50000    90.42553   358.15350     3.82542    89.57447     1.84650     3.82542
    16.60000    90.42551   358.15360     3.82552    89.57449     1.84640     3.82552
    16.70000    90.42549   358.15369     3.82562    89.57451     1.84631     3.82562
    16.80000    90.42547   358.15379     3.82572    89.57453     1.84621     3.82572
    16.90000    90.42545   358.15389     3.82582    89.57455     1.84611     3.82582
    17.00000    90.42542   358.15398     3.82592    89.57458     1.84602     3.82592
    17.10000    90.42540   358.15408     3.82602    89.57460     1.84592     3.82602
    17.20000    90.42538   358.15418     3.82612    89.57462     1.84582     3.82612
    17.30000    90.42536   358.15427     3.82622    89.57464     1.84573     3.82622
    17.40000    90.42534   358.15437     3.82632    89.57466     1.84563     3.82632
    17.50000    90.42532   358.15447     3.82642    89.57468     1.84553     3.82642
    17.60000    90.42530   358.15456     3.82652    89.57470     1.84544     3.82652
    17.70000    90.42527   358.15466     3.82662    89.57473     1.84534     3.82662
    17.80000    90.42525   358.15476     3.82672    89.57475     1.84524     3.82672
    17.90000    90.42523   358.15485     3.82681    89.57477     1.84515     3.82681
    18.00000    90.42521   358.15495     3.82691    89.57479     1.84505     3.82691
    18.10000    90.42519   358.15505     3.82701    89.57481     1.84495     3.82701
    18.20000    90.42517   358.15514     3.82711    89.57483     1.84486     3.82711
    18.30000    90.42515   358.15524     3.82721    89.57485     1.84476     3.82721
    18.40000    90.42512   358.15534     3.82731    89.57488     1.84466     3.82731
    18.50000    90.42510   358.15543     3.82741    89.57490     1.84457     3.82741
    18.60000    90.42508   358.15553     3.82751    89.57492     1.84447     3.82751
    18.70000    90.42506   358.15563     3.82761    89.57494     1.84437     3.82761
    18.80000    90.42504   358.15572     3.82771    89.57496     1.84428     3.82771
    18.90000    90.42502   358.15582     3.82781    89.57498     1.84418     3.82781
    19.00000    90.42500   358.15592     3.82791    89.57500     1.84408     3.82791
    19.10000    90.42497   358.15601     3.82801    89.57503     1.84399     3.82801
    19.20000    90.42495   358.15611     3.82810    89.57505     1.84389     3.82810
    19.30000    90.42493   358.15621     3.82820    89.57507     1.84379     3.82820
    19.40000    90.42491   358.15630     3.82830    89.57509     1.84370     3.82830
    19.50000    90.42489   358.15640     3.82840    89.57511     1.84360     3.82840
    19.60000    90.42487   358.15650     3.82850    89.57513     1.84350     3.82850
    19.70000    90.42485   358.15659     3.82860    89.57515     1.84341     3.82860
    19.80000    90.42482   358.15669     3.82870    89.57518     1.84331     3.82870
    19.90000    90.42480   358.15679     3.82880    89.57520     1.84321     3.82880
    20.00000    90.42478   358.15688     3.82890    89.57522     1.84312     3.82890
    20.10000    90.42476   358.15698     3.82899    89.57524     1.84302     3.82899
    20.20000    90.42474   358.15707     3.82909    89.57526     1.84293     3.82909
    20.30000    90.42472   358.15717     3.82919    89.57528     1.84283     3.82919
    20.40000    90.42470   358.15727     3.82929    89.57530     1.84273     3.82929
    20.50000    90.42468   358.15736     3.82939    89.57532     1.84264     3.82939
    20.60000    90.42465   358.15746     3.82949    89.57535     1.84254     3.82949
    20.70000    90.42463   358.15756     3.82959    89.57537     1.84244     3.82959
    20.80000    90.42461   358.15765     3.82968    89.57539     1.84235     3.82968
    20.90000    90.42459   358.15775     3.82978    89.57541     1.84225     3.82978
    21.00000    90.42457   358.15784     3.82988    89.57543     1.84216     3.82988
    21.10000    90.42455   358.15794     3.82998    89.57545     1.84206     3.82998
    21.20000    90.42453   358.15804     3.83008    89.57547     1.84196     3.83008
    21.30000    90.42451   358.15813     3.83018    89.57549     1.84187     3.83018
    21.40000    90.42448   358.15823     3.83028    89.57552     1.84177     3.83028
    21.50000    90.42446   358.15833     3.83037    89.57554     1.84167     3.83037
    21.60000    90.42444   358.15842     3.83047    89.57556     1.84158     3.83047
    21.70000    90.42442   358.15852     3.83057    89.57558     1.84148     3.83057
    21.80000    90.42440   358.15861     3.83067    89.57560     1.84139     3.83067
    21.90000    90.42438   358.15871     3.83077    89.57562     1.84129     3.83077
    22.00000    90.42436   358.15881     3.83086    89.57564     1.84119     3.83086
    22.10000    90.42433   358.15890     3.83096    89.57567     1.84110     3.83096
    22.20000    90.42431   358.15900     3.83106    89.57569     1.84100     3.83106
    22.30000    90.42429   358.15909     3.83116    89.57571     1.84091     3.83116
    22.40000    90.42427   358.15919     3.83126    89.57573     1.84081     3.83126
    22.50000    90.42425   358.15929     3.83135    89.57575     1.84071     3.83135
    22.60000    90.42423   358.15938     3.83145    89.57577     1.84062     3.83145
    22.70000    90.42421   358.15948     3.83155    89.57579     1.84052     3.83155
    22.80000    90.42419   358.15957     3.83165    89.57581     1.84043     3.83165
    22.90000    90.42417   358.15967     3.83175    89.57583     1.84033     3.83175
    23.00000    90.42414   358.15976     3.83184    89.57586     1.84024     3.83184
    23.10000    90.42412   358.15986     3.83194    89.57588     1.84014     3.83194
    23.20000    90.42410   358.15996     3.83204    89.57590     1.84004     3.83204
    23.30000    90.42408   358.16005     3.83214    89.57592     1.83995     3.83214
    23.40000    90.42406   358.16015     3.83223    89.57594     1.83985     3.83223
    23.50000    90.42404   358.16024     3.83233    89.57596     1.83976     3.83233
    23.60000    90.42402   358.16034     3.83243    89.57598     1.83966     3.83243
    23.70000    90.42400   358.16043     3.83253    89.57600     1.83957     3.83253
    23.80000    90.42397   358.16053     3.83263    89.57603     1.83947     3.83263
    23.90000    90.42395   358.16063     3.83272    89.57605     1.83937     3.83272
    24.00000    90.42393   358.16072     3.83282    89.57607     1.83928     3.83282
    24.10000    90.42391   358.16082     3.83292    89.57609     1.83918     3.83292
    24.20000    90.42389   358.16091     3.83301    89.57611     1.83909     3.83301
    24.30000    90.42387   358.16101     3.83311    89.57613     1.83899     3.83311
    24.40000    90.42385   358.16110     3.83321    89.57615     1.83890     3.83321
    24.50000    90.42383   358.16120     3.83331    89.57617     1.83880     3.83331
    24.60000    90.42380   358.16130     3.83340    89.57620     1.83870     3.83340
    24.70000    90.42378   358.16139     3.83350    89.57622     1.83861     3.83350
    24.80000    90.42376   358.16149     3.83360    89.57624     1.83851     3.83360
    24.90000    90.42374   358.16158     3.83370    89.57626     1.83842     3.83370
    25.00000    90.42372   358.16168     3.83379    89.57628     1.83832     3.83379
    25.10000    90.42370   358.16177     3.83389    89.57630     1.83823     3.83389
    25.20000    90.42368   358.16187     3.83399    89.57632     1.83813     3.83399
    25.30000    90.42366   358.16196     3.83408    89.57634     1.83804     3.83408
    25.40000    90.42364   358.16206     3.83418    89.57636     1.83794     3.83418
    25.50000    90.42361   358.16215     3.83428    89.57639     1.83785     3.83428
    25.60000    90.42359   358.16225     3.83438    89.57641     1.83775     3.83438
    25.70000    90.42357   358.16234     3.83447    89.57643     1.83766     3.83447
    25.80000    90.42355   358.16244     3.83457    89.57645     1.83756     3.83457
    25.90000    90.42353   358.16254     3.83467    89.57647     1.83746     3.83467
    26.00000    90.42351   358.16263     3.83476    89.57649     1.83737     3.83476
    26.10000    90.42349   358.16273     3.83486    89.57651     1.83727     3.83486
    26.20000    90.42347   358.16282     3.83496    89.57653     1.83718     3.83496
    26.30000    90.42345   358.16292     3.83505    89.57655     1.83708     3.83505
    26.40000    90.42342   358.16301     3.83515    89.57658     1.83699     3.83515
    26.50000    90.42340   358.16311     3.83525    89.57660     1.83689     3.83525
    26.60000    90.42338   358.16320     3.83534    89.57662     1.83680     3.83534
    26.70000    90.42336   358.16330     3.83544    89.57664     1.83670     3.83544
    26.80000    90.42334   358.16339     3.83554    89.57666     1.83661     3.83554
    26.90000    90.42332   358.16349     3.83563    89.57668     1.83651     3.83563
    27.00000    90.42330   358.16358     3.83573    89.57670     1.83642     3.83573
    27.10000    90.42328   358.16368     3.83583    89.57672     1.83632     3.83583
    27.20000    90.42326   358.16377     3.83592    89.57674     1.83623     3.83592
    27.30000    90.42323   358.16387     3.83602    89.57677     1.83613     3.83602
    27.40000    90.42321   358.16396     3.83611    89.57679     1.83604     3.83611
    27.50000    90.42319   358.16406     3.83621    89.57681     1.83594     3.83621
    27.60000    90.42317   358.16415     3.83631    89.57683     1.83585     3.83631
    27.70000    90.42315   358.16425     3.83640    89.57685     1.83575     3.83640
    27.80000    90.42313   358.16434     3.83650    89.57687     1.83566     3.83650
    27.90000    90.42311   358.16444     3.83660    89.57689     1.83556     3.83660
    28.00000    90.42309   358.16453     3.83669    89.57691     1.83547     3.83669
    28.10000    90.42307   358.16463     3.83679    89.57693     1.83537     3.83679
    28.20000    90.42305   358.16472     3.83688    89.57695     1.83528     3.83688
    28.30000    90.42302   358.16482     3.83698    89.57698     1.83518     3.83698
    28.40000    90.42300   358.16491     3.83708    89.57700     1.83509     3.83708
    28.50000    90.42298   358.16501     3.83717    89.57702     1.83499     3.83717
    28.60000    90.42296   358.16510     3.83727    89.57704     1.83490     3.83727
    28.70000    90.42294   358.16520     3.83736    89.57706     1.83480     3.83736
    28.80000    90.42292   358.16529     3.83746    89.57708     1.83471     3.83746
    28.90000    90.42290   358.16539     3.83756    89.57710     1.83461     3.83756
    29.00000    90.42288   358.16548     3.83765    89.57712     1.83452     3.83765
    29.10000    90.42286   358.16558     3.83775    89.57714     1.83442     3.83775
    29.20000    90.42284   358.16567     3.83784    89.57716     1.83433     3.83784
    29.30000    90.42281   358.16576     3.83794    89.57719     1.83424     3.83794
    29.40000    90.42279   358.16586     3.83804    89.57721     1.83414     3.83804
    29.50000    90.42277   358.16595     3.83813    89.57723     1.83405     3.83813
    29.60000    90.42275   358.16605     3.83823    89.57725     1.83395     3.83823
    29.70000    90.42273   358.16614     3.83832    89.57727     1.83386     3.83832
    29.80000    90.42271   358.16624     3.83842    89.57729     1.83376     3.83842
    29.90000    90.42269   358.16633     3.83851    89.57731     1.83367     3.83851
    30.00000    90.42267   358.16643     3.83861    89.57733     1.83357     3.83861
    30.10000    90.42265   358.16652     3.83870    89.57735     1.83348     3.83870
    30.20000    90.42263   358.16662     3.83880    89.57737     1.83338     3.83880
    30.30000    90.42260   358.16671     3.83890    89.57740     1.83329     3.83890
    30.40000    90.42258   358.16681     3.83899    89.57742     1.83319     3.83899
    30.50000    90.42256   358.16690     3.83909    89.57744     1.83310     3.83909
    30.60000    90.42254   358.16699     3.83918    89.57746     1.83301     3.83918
    30.70000    90.42252   358.16709     3.83928    89.57748     1.83291     3.83928
    30.80000    90.42250   358.16718     3.83937    89.57750     1.83282     3.83937
    30.90000    90.42248   358.16728     3.83947    89.57752     1.83272     3.83947
    31.00000    90.42246   358.16737     3.83956    89.57754     1.83263     3.83956
    31.10000    90.42244   358.16747     3.83966    89.57756     1.83253     3.83966
    31.20000    90.42242   358.16756     3.83975    89.57758     1.83244     3.83975
    31.30000    90.42240   358.16766     3.83985    89.57760     1.83234     3.83985
    31.40000    90.42237   358.16775     3.83994    89.57763     1.83225     3.83994
    31.50000    90.42235   358.16784     3.84004    89.57765     1.83216     3.84004
    31.60000    90.42233   358.16794     3.84013    89.57767     1.83206     3.84013
    31.70000    90.42231   358.16803     3.84023    89.57769     1.83197     3.84023
    31.80000    90.42229   358.16813     3.84032    89.57771     1.83187     3.84032
    31.90000    90.42227   358.16822     3.84042    89.57773     1.83178     3.84042
    32.00000    90.42225   358.16831     3.84051    89.57775     1.83169     3.84051
    32.10000    90.42223   358.16841     3.84061    89.57777     1.83159     3.84061
    32.20000    90.42221   358.16850     3.84070    89.57779     1.83150     3.84070
    32.30000    90.42219   358.16860     3.84080    89.57781     1.83140     3.84080
    32.40000    90.42217   358.16869     3.84089    89.57783     1.83131     3.84089
    32.50000    90.42214   358.16879     3.84099    89.57786     1.83121     3.84099
    32.60000    90.42212   358.16888     3.84108    89.57788     1.83112     3.84108
    32.70000    90.42210   358.16897     3.84118    89.57790     1.83103     3.84118
    32.80000    90.42208   358.16907     3.84127    89.57792     1.83093     3.84127
    32.90000    90.42206   358.16916     3.84137    89.57794     1.83084     3.84137
    33.00000    90.42204   358.16926     3.84146    89.57796     1.83074     3.84146
    33.10000    90.42202   358.16935     3.84155    89.57798     1.83065     3.84155
    33.20000    90.42200   358.16944     3.84165    89.57800     1.83056     3.84165
    33.30000    90.42198   358.16954     3.84174    89.57802     1.83046     3.84174
    33.40000    90.42196   358.16963     3.84184    89.57804     1.83037     3.84184
    33.50000    90.42194   358.16973     3.84193    89.57806     1.83027     3.84193
    33.60000    90.42192   358.16982     3.84203    89.57808     1.83018     3.84203
    33.70000    90.42189   358.16991     3.84212    89.57811     1.83009     3.84212
    33.80000    90.42187   358.17001     3.84222    89.57813     1.82999     3.84222
    33.90000    90.42185   358.17010     3.84231    89.57815     1.82990     3.84231
    34.00000    90.42183   358.17020     3.84240    89.57817     1.82980     3.84240
    34.10000    90.42181   358.17029     3.84250    89.57819     1.82971     3.84250
    34.20000    90.42179   358.17038     3.84259    89.57821     1.82962     3.84259
    34.30000    90.42177   358.17048     3.84269    89.57823     1.82952     3.84269
    34.40000    90.42175   358.17057     3.84278    89.57825     1.82943     3.84278
    34.50000    90.42173   358.17066     3.84287    89.57827     1.82934     3.84287
    34.60000    90.42171   358.17076     3.84297    89.57829     1.82924     3.84297
    34.70000    90.42169   358.17085     3.84306    89.57831     1.82915     3.84306
    34.80000    90.42167   358.17095     3.84316    89.57833     1.82905     3.84316
    34.90000    90.42165   358.17104     3.84325    89.57835     1.82896     3.84325
    35.00000    90.42162   358.17113     3.84334    89.57838     1.82887     3.84334
    35.10000    90.42160   358.17123     3.84344    89.57840     1.82877     3.84344
    35.20000    90.42158   358.17132     3.84353    89.57842     1.82868     3.84353
    35.30000    90.42156   358.17141     3.84363    89.57844     1.82859     3.84363
    35.40000    90.42154   358.17151     3.84372    89.57846     1.82849     3.84372
    35.50000    90.42152   358.17160     3.84381    89.57848     1.82840     3.84381
    35.60000    90.42150   358.17169     3.84391    89.57850     1.82831     3.84391
    35.70000    90.42148   358.17179     3.84400    89.57852     1.82821     3.84400
    35.80000    90.42146   358.17188     3.84410    89.57854     1.82812     3.84410
    35.90000    90.42144   358.17198     3.84419    89.57856     1.82802     3.84419
    36.00000    90.42142   358.17207     3.84428    89.57858     1.82793     3.84428
    36.10000    90.42140   358.17216     3.84438    89.57860     1.82784     3.84438
    36.20000    90.42138   358.17226     3.84447    89.57862     1.82774     3.84447
    36.30000    90.42135   358.17235     3.84456    89.57865     1.82765     3.84456
    36.40000    90.42133   358.17244     3.84466    89.57867     1.82756     3.84466
    36.50000    90.42131   358.17254     3.84475    89.57869     1.82746     3.84475
    36.60000    90.42129   358.17263     3.84484    89.57871     1.82737     3.84484
    36.70000    90.42127   358.17272     3.84494    89.57873     1.82728     3.84494
    36.80000    90.42125   358.17282     3.84503    89.57875     1.82718     3.84503
    36.90000    90.42123   358.17291     3.84512    89.57877     1.82709     3.84512
    37.00000    90.42121   358.17300     3.84522    89.57879     1.82700     3.84522
    37.10000    90.42119   358.17310     3.84531    89.57881     1.82690     3.84531
    37.20000    90.42117   358.17319     3.84540    89.57883     1.82681     3.84540
    37.30000    90.42115   358.17328     3.84550    89.57885     1.82672     3.84550
    37.40000    90.42113   358.17338     3.84559    89.57887     1.82662     3.84559
    37.50000    90.42111   358.17347     3.84568    89.57889     1.82653     3.84568
    37.60000    90.42109   358.17356     3.84578    89.57891     1.82644     3.84578
    37.70000    90.42106   358.17366     3.84587    89.57894     1.82634     3.84587
    37.80000    90.42104   358.17375     3.84596    89.57896     1.82625     3.84596
    37.90000    90.42102   358.17384     3.84606    89.57898     1.82616     3.84606
    38.00000    90.42100   358.17394     3.84615    89.57900     1.82606     3.84615
    38.10000    90.42098   358.17403     3.84624    89.57902     1.82597     3.84624
    38.20000    90.42096   358.17412     3.84633    89.57904     1.82588     3.84633
    38.30000    90.42094   358.17421     3.84643    89.57906     1.82579     3.84643
    38.40000    90.42092   358.17431     3.84652    89.57908     1.82569     3.84652
    38.50000    90.42090   358.17440     3.84661    89.57910     1.82560     3.84661
    38.60000    90.42088   358.17449     3.84671    89.57912     1.82551     3.84671
    38.70000    90.42086   358.17459     3.84680    89.57914     1.82541     3.84680
    38.80000    90.42084   358.17468     3.84689    89.57916     1.82532     3.84689
    38.90000    90.42082   358.17477     3.84698    89.57918     1.82523     3.84698
    39.00000    90.42080   358.17487     3.84708    89.57920     1.82513     3.84708
    39.10000    90.42078   358.17496     3.84717    89.57922     1.82504     3.84717
    39.20000    90.42076   358.17505     3.84726    89.57924     1.82495     3.84726
    39.30000    90.42073   358.17514     3.84735    89.57927     1.82486     3.84735
    39.40000    90.42071   358.17524     3.84745    89.57929     1.82476     3.84745
    39.50000    90.42069   358.17533     3.84754    89.57931     1.82467     3.84754
    39.60000    90.42067   358.17542     3.84763    89.57933     1.82458     3.84763
    39.70000    90.42065   358.17552     3.84772    89.57935     1.82448     3.84772
    39.80000    90.42063   358.17561     3.84782    89.57937     1.82439     3.84782
    39.90000    90.42061   358.17570     3.84791    89.57939     1.82430     3.84791
    40.00000    90.42059   358.17579     3.84800    89.57941     1.82421     3.84800
