 # applied field (T), theta (degree), phi (degree), abs for RE 1-2
     0.00000   179.81139   135.00000     4.37789   179.81139    45.00000     4.37789
     0.10000   179.55334   161.73546     4.37785   179.79789   141.14081     4.37792
     0.20000   179.27011   168.40813     4.37780   179.53603   164.97211     4.37795
     0.30000   178.93437   171.66270     4.37774   179.20476   171.84555     4.37797
     0.40000   178.64498   173.16223     4.37767   178.91685   174.36184     4.37797
     0.50000   178.35488   174.13173     4.37760   178.62772   175.81758     4.37797
     0.60000   178.06433   174.80884     4.37752   178.33797   176.76451     4.37796
     0.70000   177.72499   175.37866     4.37741   177.99953   177.52010     4.37794
     0.80000   177.43379   175.74553     4.37731   177.70913   177.98904     4.37792
     0.90000   177.14234   176.03648     4.37721   177.41854   178.35142     4.37788
     1.00000   176.85065   176.27252     4.37709   177.12777   178.63956     4.37784
     1.10000   176.51011   176.49703     4.37695   176.78839   178.90852     4.37778
     1.20000   176.21791   176.65614     4.37682   176.49727   179.09701     4.37772
     1.30000   175.92546   176.79158     4.37668   176.20598   179.25593     4.37766
     1.40000   175.58401   176.92609     4.37651   175.86599   179.41214     4.37757
     1.50000   175.29101   177.02491     4.37636   175.57432   179.52652     4.37748
     1.60000   174.99772   177.11142     4.37620   175.28246   179.62629     4.37739
     1.70000   174.65526   177.19965     4.37600   174.94175   179.72745     4.37728
     1.80000   174.36134   177.26591     4.37582   174.64943   179.80360     4.37717
     1.90000   174.06711   177.32497     4.37564   174.35688   179.87150     4.37705
     2.00000   173.72349   177.38625     4.37541   174.01532   179.94179     4.37690
     2.10000   173.42854   177.43293     4.37521   173.72223   179.99572     4.37677
     2.20000   173.08404   177.48177     4.37496   173.38000   180.05215     4.37660
     2.30000   172.78831   177.51924     4.37475   173.08631   180.09587     4.37645
     2.40000   172.44287   177.55869     4.37448   172.74334   180.14202     4.37627
     2.50000   172.14630   177.58909     4.37425   172.44898   180.17808     4.37610
     2.60000   171.79985   177.62126     4.37397   172.10519   180.21642     4.37589
     2.70000   171.50237   177.64614     4.37372   171.81010   180.24658     4.37571
     2.80000   171.15484   177.67255     4.37343   171.46543   180.27885     4.37549
     2.90000   170.80669   177.69635     4.37312   171.12025   180.30840     4.37525
     3.00000   170.50771   177.71479     4.37285   170.82391   180.33186     4.37504
     3.10000   170.15837   177.73444     4.37252   170.47772   180.35716     4.37479
     3.20000   169.80835   177.75216     4.37219   170.13097   180.38052     4.37453
     3.30000   169.50773   177.76588     4.37190   169.83323   180.39921     4.37429
     3.40000   169.15642   177.78050     4.37155   169.48535   180.41950     4.37401
     3.50000   168.80438   177.79367     4.37119   169.13685   180.43837     4.37372
     3.60000   168.45160   177.80550     4.37082   168.78769   180.45596     4.37342
     3.70000   168.09805   177.81611     4.37045   168.43786   180.47239     4.37311
     3.80000   167.74372   177.82561     4.37006   168.08733   180.48778     4.37279
     3.90000   167.38858   177.83407     4.36967   167.73608   180.50222     4.37245
     4.00000   167.03262   177.84158     4.36927   167.38410   180.51579     4.37211
     4.10000   166.62485   177.84916     4.36881   166.98096   180.53031     4.37172
     4.20000   166.26707   177.85487     4.36839   166.62732   180.54229     4.37136
     4.30000   165.90841   177.85983     4.36797   166.27288   180.55362     4.37099
     4.40000   165.49749   177.86470     4.36748   165.86686   180.56582     4.37056
     4.50000   165.13689   177.86822     4.36704   165.51062   180.57595     4.37017
     4.60000   164.72371   177.87157     4.36653   165.10250   180.58691     4.36972
     4.70000   164.36109   177.87385     4.36608   164.74438   180.59605     4.36931
     4.80000   163.94556   177.87588     4.36555   164.33405   180.60598     4.36884
     4.90000   163.52875   177.87727     4.36502   163.92251   180.61544     4.36835
     5.00000   163.11063   177.87807     4.36448   163.50972   180.62447     4.36786
     5.10000   162.69118   177.87832     4.36393   163.09566   180.63311     4.36735
     5.20000   162.27038   177.87806     4.36338   162.68029   180.64141     4.36684
     5.30000   161.84820   177.87732     4.36282   162.26359   180.64940     4.36631
     5.40000   161.37167   177.87599     4.36218   161.79326   180.65803     4.36571
     5.50000   160.94652   177.87433     4.36161   161.37364   180.66546     4.36517
     5.60000   160.46660   177.87203     4.36095   160.89996   180.67354     4.36455
     5.70000   159.98484   177.86928     4.36030   160.42446   180.68137     4.36391
     5.80000   159.50123   177.86609     4.35963   159.94711   180.68900     4.36327
     5.90000   159.01575   177.86251     4.35896   159.46786   180.69644     4.36262
     6.00000   158.47419   177.85813     4.35822   158.93318   180.70452     4.36188
     6.10000   157.93026   177.85333     4.35746   158.39608   180.71244     4.36113
     6.20000   157.38396   177.84814     4.35671   157.85653   180.72024     4.36038
     6.30000   156.83526   177.84259     4.35595   157.31449   180.72794     4.35961
     6.40000   156.22898   177.83614     4.35511   156.71539   180.73632     4.35876
     6.50000   155.61978   177.82932     4.35427   156.11319   180.74466     4.35789
     6.60000   154.95191   177.82153     4.35335   155.45272   180.75372     4.35694
     6.70000   154.28055   177.81339     4.35244   154.78846   180.76280     4.35599
     6.80000   153.54936   177.80423     4.35146   154.06459   180.77268     4.35494
     6.90000    90.54378   177.80042     4.33698    89.45622   182.19958     4.33698
     7.00000    90.54373   177.80061     4.33694    89.45627   182.19939     4.33694
     7.10000    90.54368   177.80081     4.33689    89.45632   182.19919     4.33689
     7.20000    90.54363   177.80100     4.33684    89.45637   182.19900     4.33684
     7.30000    90.54357   177.80119     4.33680    89.45643   182.19881     4.33680
     7.40000    90.54352   177.80138     4.33675    89.45648   182.19862     4.33675
     7.50000    90.54347   177.80157     4.33670    89.45653   182.19843     4.33670
     7.60000    90.54342   177.80176     4.33666    89.45658   182.19824     4.33666
     7.70000    90.54336   177.80196     4.33661    89.45664   182.19804     4.33661
     7.80000    90.54331   177.80215     4.33656    89.45669   182.19785     4.33656
     7.90000    90.54326   177.80234     4.33652    89.45674   182.19766     4.33652
     8.00000    90.54320   177.80253     4.33647    89.45680   182.19747     4.33647
     8.10000    90.54315   177.80272     4.33642    89.45685   182.19728     4.33642
     8.20000    90.54310   177.80291     4.33638    89.45690   182.19709     4.33638
     8.30000    90.54305   177.80310     4.33633    89.45695   182.19690     4.33633
     8.40000    90.54300   177.80329     4.33628    89.45700   182.19671     4.33628
     8.50000    90.54294   177.80348     4.33624    89.45706   182.19652     4.33624
     8.60000    90.54289   177.80367     4.33619    89.45711   182.19633     4.33619
     8.70000    90.54284   177.80387     4.33614    89.45716   182.19613     4.33614
     8.80000    90.54279   177.80406     4.33610    89.45721   182.19594     4.33610
     8.90000    90.54273   177.80425     4.33605    89.45727   182.19575     4.33605
     9.00000    90.54268   177.80444     4.33600    89.45732   182.19556     4.33600
     9.10000    90.54263   177.80463     4.33596    89.45737   182.19537     4.33596
     9.20000    90.54258   177.80482     4.33591    89.45742   182.19518     4.33591
     9.30000    90.54252   177.80501     4.33586    89.45748   182.19499     4.33586
     9.40000    90.54247   177.80520     4.33582    89.45753   182.19480     4.33582
     9.50000    90.54242   177.80539     4.33577    89.45758   182.19461     4.33577
     9.60000    90.54237   177.80558     4.33572    89.45763   182.19442     4.33572
     9.70000    90.54232   177.80577     4.33568    89.45768   182.19423     4.33568
     9.80000    90.54226   177.80596     4.33563    89.45774   182.19404     4.33563
     9.90000    90.54221   177.80615     4.33558    89.45779   182.19385     4.33558
    10.00000    90.54216   177.80633     4.33554    89.45784   182.19367     4.33554
    10.10000    90.54211   177.80652     4.33549    89.45789   182.19348     4.33549
    10.20000    90.54206   177.80671     4.33544    89.45794   182.19329     4.33544
    10.30000    90.54200   177.80690     4.33540    89.45800   182.19310     4.33540
    10.40000    90.54195   177.80709     4.33535    89.45805   182.19291     4.33535
    10.50000    90.54190   177.80728     4.33530    89.45810   182.19272     4.33530
    10.60000    90.54185   177.80747     4.33526    89.45815   182.19253     4.33526
    10.70000    90.54180   177.80766     4.33521    89.45820   182.19234     4.33521
    10.80000    90.54174   177.80785     4.33516    89.45826   182.19215     4.33516
    10.90000    90.54169   177.80804     4.33512    89.45831   182.19196     4.33512
    11.00000    90.54164   177.80822     4.33507    89.45836   182.19178     4.33507
    11.10000    90.54159   177.80841     4.33502    89.45841   182.19159     4.33502
    11.20000    90.54154   177.80860     4.33498    89.45846   182.19140     4.33498
    11.30000    90.54149   177.80879     4.33493    89.45851   182.19121     4.33493
    11.40000    90.54143   177.80898     4.33488    89.45857   182.19102     4.33488
    11.50000    90.54138   177.80917     4.33484    89.45862   182.19083     4.33484
    11.60000    90.54133   177.80935     4.33479    89.45867   182.19065     4.33479
    11.70000    90.54128   177.80954     4.33474    89.45872   182.19046     4.33474
    11.80000    90.54123   177.80973     4.33470    89.45877   182.19027     4.33470
    11.90000    90.54118   177.80992     4.33465    89.45882   182.19008     4.33465
    12.00000    90.54112   177.81010     4.33460    89.45888   182.18990     4.33460
    12.10000    90.54107   177.81029     4.33456    89.45893   182.18971     4.33456
    12.20000    90.54102   177.81048     4.33451    89.45898   182.18952     4.33451
    12.30000    90.54097   177.81067     4.33446    89.45903   182.18933     4.33446
    12.40000    90.54092   177.81085     4.33442    89.45908   182.18915     4.33442
    12.50000    90.54087   177.81104     4.33437    89.45913   182.18896     4.33437
    12.60000    90.54082   177.81123     4.33432    89.45918   182.18877     4.33432
    12.70000    90.54076   177.81142     4.33428    89.45924   182.18858     4.33428
    12.80000    90.54071   177.81160     4.33423    89.45929   182.18840     4.33423
    12.90000    90.54066   177.81179     4.33418    89.45934   182.18821     4.33418
    13.00000    90.54061   177.81198     4.33413    89.45939   182.18802     4.33413
    13.10000    90.54056   177.81216     4.33409    89.45944   182.18784     4.33409
    13.20000    90.54051   177.81235     4.33404    89.45949   182.18765     4.33404
    13.30000    90.54046   177.81254     4.33399    89.45954   182.18746     4.33399
    13.40000    90.54041   177.81272     4.33395    89.45959   182.18728     4.33395
    13.50000    90.54035   177.81291     4.33390    89.45965   182.18709     4.33390
    13.60000    90.54030   177.81310     4.33385    89.45970   182.18690     4.33385
    13.70000    90.54025   177.81328     4.33381    89.45975   182.18672     4.33381
    13.80000    90.54020   177.81347     4.33376    89.45980   182.18653     4.33376
    13.90000    90.54015   177.81365     4.33371    89.45985   182.18635     4.33371
    14.00000    90.54010   177.81384     4.33367    89.45990   182.18616     4.33367
    14.10000    90.54005   177.81403     4.33362    89.45995   182.18597     4.33362
    14.20000    90.54000   177.81421     4.33357    89.46000   182.18579     4.33357
    14.30000    90.53995   177.81440     4.33353    89.46005   182.18560     4.33353
    14.40000    90.53989   177.81458     4.33348    89.46011   182.18542     4.33348
    14.50000    90.53984   177.81477     4.33343    89.46016   182.18523     4.33343
    14.60000    90.53979   177.81495     4.33338    89.46021   182.18505     4.33338
    14.70000    90.53974   177.81514     4.33334    89.46026   182.18486     4.33334
    14.80000    90.53969   177.81532     4.33329    89.46031   182.18468     4.33329
    14.90000    90.53964   177.81551     4.33324    89.46036   182.18449     4.33324
    15.00000    90.53959   177.81569     4.33320    89.46041   182.18431     4.33320
    15.10000    90.53954   177.81588     4.33315    89.46046   182.18412     4.33315
    15.20000    90.53949   177.81606     4.33310    89.46051   182.18394     4.33310
    15.30000    90.53944   177.81625     4.33306    89.46056   182.18375     4.33306
    15.40000    90.53939   177.81643     4.33301    89.46061   182.18357     4.33301
    15.50000    90.53933   177.81662     4.33296    89.46067   182.18338     4.33296
    15.60000    90.53928   177.81680     4.33291    89.46072   182.18320     4.33291
    15.70000    90.53923   177.81699     4.33287    89.46077   182.18301     4.33287
    15.80000    90.53918   177.81717     4.33282    89.46082   182.18283     4.33282
    15.90000    90.53913   177.81736     4.33277    89.46087   182.18264     4.33277
    16.00000    90.53908   177.81754     4.33273    89.46092   182.18246     4.33273
    16.10000    90.53903   177.81772     4.33268    89.46097   182.18228     4.33268
    16.20000    90.53898   177.81791     4.33263    89.46102   182.18209     4.33263
    16.30000    90.53893   177.81809     4.33259    89.46107   182.18191     4.33259
    16.40000    90.53888   177.81828     4.33254    89.46112   182.18172     4.33254
    16.50000    90.53883   177.81846     4.33249    89.46117   182.18154     4.33249
    16.60000    90.53878   177.81864     4.33244    89.46122   182.18136     4.33244
    16.70000    90.53873   177.81883     4.33240    89.46127   182.18117     4.33240
    16.80000    90.53868   177.81901     4.33235    89.46132   182.18099     4.33235
    16.90000    90.53863   177.81919     4.33230    89.46137   182.18081     4.33230
    17.00000    90.53858   177.81938     4.33226    89.46142   182.18062     4.33226
    17.10000    90.53853   177.81956     4.33221    89.46147   182.18044     4.33221
    17.20000    90.53848   177.81974     4.33216    89.46152   182.18026     4.33216
    17.30000    90.53843   177.81993     4.33211    89.46157   182.18007     4.33211
    17.40000    90.53837   177.82011     4.33207    89.46163   182.17989     4.33207
    17.50000    90.53832   177.82029     4.33202    89.46168   182.17971     4.33202
    17.60000    90.53827   177.82048     4.33197    89.46173   182.17952     4.33197
    17.70000    90.53822   177.82066     4.33193    89.46178   182.17934     4.33193
    17.80000    90.53817   177.82084     4.33188    89.46183   182.17916     4.33188
    17.90000    90.53812   177.82102     4.33183    89.46188   182.17898     4.33183
    18.00000    90.53807   177.82121     4.33178    89.46193   182.17879     4.33178
    18.10000    90.53802   177.82139     4.33174    89.46198   182.17861     4.33174
    18.20000    90.53797   177.82157     4.33169    89.46203   182.17843     4.33169
    18.30000    90.53792   177.82175     4.33164    89.46208   182.17825     4.33164
    18.40000    90.53787   177.82194     4.33160    89.46213   182.17806     4.33160
    18.50000    90.53782   177.82212     4.33155    89.46218   182.17788     4.33155
    18.60000    90.53777   177.82230     4.33150    89.46223   182.17770     4.33150
    18.70000    90.53772   177.82248     4.33145    89.46228   182.17752     4.33145
    18.80000    90.53767   177.82266     4.33141    89.46233   182.17734     4.33141
    18.90000    90.53762   177.82285     4.33136    89.46238   182.17715     4.33136
    19.00000    90.53757   177.82303     4.33131    89.46243   182.17697     4.33131
    19.10000    90.53752   177.82321     4.33126    89.46248   182.17679     4.33126
    19.20000    90.53747   177.82339     4.33122    89.46253   182.17661     4.33122
    19.30000    90.53742   177.82357     4.33117    89.46258   182.17643     4.33117
    19.40000    90.53737   177.82375     4.33112    89.46263   182.17625     4.33112
    19.50000    90.53732   177.82394     4.33108    89.46268   182.17606     4.33108
    19.60000    90.53727   177.82412     4.33103    89.46273   182.17588     4.33103
    19.70000    90.53722   177.82430     4.33098    89.46278   182.17570     4.33098
    19.80000    90.53717   177.82448     4.33093    89.46283   182.17552     4.33093
    19.90000    90.53712   177.82466     4.33089    89.46288   182.17534     4.33089
    20.00000    90.53707   177.82484     4.33084    89.46293   182.17516     4.33084
    20.10000    90.53703   177.82502     4.33079    89.46297   182.17498     4.33079
    20.20000    90.53698   177.82520     4.33075    89.46302   182.17480     4.33075
    20.30000    90.53693   177.82538     4.33070    89.46307   182.17462     4.33070
    20.40000    90.53688   177.82556     4.33065    89.46312   182.17444     4.33065
    20.50000    90.53683   177.82574     4.33060    89.46317   182.17426     4.33060
    20.60000    90.53678   177.82592     4.33056    89.46322   182.17408     4.33056
    20.70000    90.53673   177.82610     4.33051    89.46327   182.17390     4.33051
    20.80000    90.53668   177.82628     4.33046    89.46332   182.17372     4.33046
    20.90000    90.53663   177.82646     4.33041    89.46337   182.17354     4.33041
    21.00000    90.53658   177.82664     4.33037    89.46342   182.17336     4.33037
    21.10000    90.53653   177.82682     4.33032    89.46347   182.17318     4.33032
    21.20000    90.53648   177.82700     4.33027    89.46352   182.17300     4.33027
    21.30000    90.53643   177.82718     4.33022    89.46357   182.17282     4.33022
    21.40000    90.53638   177.82736     4.33018    89.46362   182.17264     4.33018
    21.50000    90.53633   177.82754     4.33013    89.46367   182.17246     4.33013
    21.60000    90.53628   177.82772     4.33008    89.46372   182.17228     4.33008
    21.70000    90.53623   177.82790     4.33003    89.46377   182.17210     4.33003
    21.80000    90.53618   177.82808     4.32999    89.46382   182.17192     4.32999
    21.90000    90.53613   177.82826     4.32994    89.46387   182.17174     4.32994
    22.00000    90.53609   177.82844     4.32989    89.46391   182.17156     4.32989
    22.10000    90.53604   177.82862     4.32985    89.46396   182.17138     4.32985
    22.20000    90.53599   177.82880     4.32980    89.46401   182.17120     4.32980
    22.30000    90.53594   177.82898     4.32975    89.46406   182.17102     4.32975
    22.40000    90.53589   177.82916     4.32970    89.46411   182.17084     4.32970
    22.50000    90.53584   177.82934     4.32966    89.46416   182.17066     4.32966
    22.60000    90.53579   177.82951     4.32961    89.46421   182.17049     4.32961
    22.70000    90.53574   177.82969     4.32956    89.46426   182.17031     4.32956
    22.80000    90.53569   177.82987     4.32951    89.46431   182.17013     4.32951
    22.90000    90.53564   177.83005     4.32947    89.46436   182.16995     4.32947
    23.00000    90.53559   177.83023     4.32942    89.46441   182.16977     4.32942
    23.10000    90.53554   177.83041     4.32937    89.46446   182.16959     4.32937
    23.20000    90.53550   177.83058     4.32932    89.46450   182.16942     4.32932
    23.30000    90.53545   177.83076     4.32928    89.46455   182.16924     4.32928
    23.40000    90.53540   177.83094     4.32923    89.46460   182.16906     4.32923
    23.50000    90.53535   177.83112     4.32918    89.46465   182.16888     4.32918
    23.60000    90.53530   177.83130     4.32913    89.46470   182.16870     4.32913
    23.70000    90.53525   177.83147     4.32909    89.46475   182.16853     4.32909
    23.80000    90.53520   177.83165     4.32904    89.46480   182.16835     4.32904
    23.90000    90.53515   177.83183     4.32899    89.46485   182.16817     4.32899
    24.00000    90.53510   177.83201     4.32894    89.46490   182.16799     4.32894
    24.10000    90.53506   177.83218     4.32890    89.46494   182.16782     4.32890
    24.20000    90.53501   177.83236     4.32885    89.46499   182.16764     4.32885
    24.30000    90.53496   177.83254     4.32880    89.46504   182.16746     4.32880
    24.40000    90.53491   177.83272     4.32875    89.46509   182.16728     4.32875
    24.50000    90.53486   177.83289     4.32871    89.46514   182.16711     4.32871
    24.60000    90.53481   177.83307     4.32866    89.46519   182.16693     4.32866
    24.70000    90.53476   177.83325     4.32861    89.46524   182.16675     4.32861
    24.80000    90.53472   177.83342     4.32856    89.46528   182.16658     4.32856
    24.90000    90.53467   177.83360     4.32852    89.46533   182.16640     4.32852
    25.00000    90.53462   177.83378     4.32847    89.46538   182.16622     4.32847
    25.10000    90.53457   177.83395     4.32842    89.46543   182.16605     4.32842
    25.20000    90.53452   177.83413     4.32837    89.46548   182.16587     4.32837
    25.30000    90.53447   177.83431     4.32833    89.46553   182.16569     4.32833
    25.40000    90.53442   177.83448     4.32828    89.46558   182.16552     4.32828
    25.50000    90.53438   177.83466     4.32823    89.46562   182.16534     4.32823
    25.60000    90.53433   177.83484     4.32818    89.46567   182.16516     4.32818
    25.70000    90.53428   177.83501     4.32813    89.46572   182.16499     4.32813
    25.80000    90.53423   177.83519     4.32809    89.46577   182.16481     4.32809
    25.90000    90.53418   177.83536     4.32804    89.46582   182.16464     4.32804
    26.00000    90.53413   177.83554     4.32799    89.46587   182.16446     4.32799
    26.10000    90.53408   177.83572     4.32794    89.46592   182.16428     4.32794
    26.20000    90.53404   177.83589     4.32790    89.46596   182.16411     4.32790
    26.30000    90.53399   177.83607     4.32785    89.46601   182.16393     4.32785
    26.40000    90.53394   177.83624     4.32780    89.46606   182.16376     4.32780
    26.50000    90.53389   177.83642     4.32775    89.46611   182.16358     4.32775
    26.60000    90.53384   177.83659     4.32771    89.46616   182.16341     4.32771
    26.70000    90.53380   177.83677     4.32766    89.46620   182.16323     4.32766
    26.80000    90.53375   177.83694     4.32761    89.46625   182.16306     4.32761
    26.90000    90.53370   177.83712     4.32756    89.46630   182.16288     4.32756
    27.00000    90.53365   177.83730     4.32751    89.46635   182.16270     4.32751
    27.10000    90.53360   177.83747     4.32747    89.46640   182.16253     4.32747
    27.20000    90.53355   177.83765     4.32742    89.46645   182.16235     4.32742
    27.30000    90.53351   177.83782     4.32737    89.46649   182.16218     4.32737
    27.40000    90.53346   177.83799     4.32732    89.46654   182.16201     4.32732
    27.50000    90.53341   177.83817     4.32728    89.46659   182.16183     4.32728
    27.60000    90.53336   177.83834     4.32723    89.46664   182.16166     4.32723
    27.70000    90.53331   177.83852     4.32718    89.46669   182.16148     4.32718
    27.80000    90.53327   177.83869     4.32713    89.46673   182.16131     4.32713
    27.90000    90.53322   177.83887     4.32709    89.46678   182.16113     4.32709
    28.00000    90.53317   177.83904     4.32704    89.46683   182.16096     4.32704
    28.10000    90.53312   177.83922     4.32699    89.46688   182.16078     4.32699
    28.20000    90.53307   177.83939     4.32694    89.46693   182.16061     4.32694
    28.30000    90.53303   177.83956     4.32689    89.46697   182.16044     4.32689
    28.40000    90.53298   177.83974     4.32685    89.46702   182.16026     4.32685
    28.50000    90.53293   177.83991     4.32680    89.46707   182.16009     4.32680
    28.60000    90.53288   177.84009     4.32675    89.46712   182.15991     4.32675
    28.70000    90.53284   177.84026     4.32670    89.46716   182.15974     4.32670
    28.80000    90.53279   177.84043     4.32666    89.46721   182.15957     4.32666
    28.90000    90.53274   177.84061     4.32661    89.46726   182.15939     4.32661
    29.00000    90.53269   177.84078     4.32656    89.46731   182.15922     4.32656
    29.10000    90.53264   177.84095     4.32651    89.46736   182.15905     4.32651
    29.20000    90.53260   177.84113     4.32646    89.46740   182.15887     4.32646
    29.30000    90.53255   177.84130     4.32642    89.46745   182.15870     4.32642
    29.40000    90.53250   177.84147     4.32637    89.46750   182.15853     4.32637
    29.50000    90.53245   177.84165     4.32632    89.46755   182.15835     4.32632
    29.60000    90.53241   177.84182     4.32627    89.46759   182.15818     4.32627
    29.70000    90.53236   177.84199     4.32622    89.46764   182.15801     4.32622
    29.80000    90.53231   177.84216     4.32618    89.46769   182.15784     4.32618
    29.90000    90.53226   177.84234     4.32613    89.46774   182.15766     4.32613
    30.00000    90.53222   177.84251     4.32608    89.46778   182.15749     4.32608
    30.10000    90.53217   177.84268     4.32603    89.46783   182.15732     4.32603
    30.20000    90.53212   177.84286     4.32599    89.46788   182.15714     4.32599
    30.30000    90.53207   177.84303     4.32594    89.46793   182.15697     4.32594
    30.40000    90.53203   177.84320     4.32589    89.46797   182.15680     4.32589
    30.50000    90.53198   177.84337     4.32584    89.46802   182.15663     4.32584
    30.60000    90.53193   177.84354     4.32579    89.46807   182.15646     4.32579
    30.70000    90.53188   177.84372     4.32575    89.46812   182.15628     4.32575
    30.80000    90.53184   177.84389     4.32570    89.46816   182.15611     4.32570
    30.90000    90.53179   177.84406     4.32565    89.46821   182.15594     4.32565
    31.00000    90.53174   177.84423     4.32560    89.46826   182.15577     4.32560
    31.10000    90.53170   177.84440     4.32555    89.46830   182.15560     4.32555
    31.20000    90.53165   177.84458     4.32551    89.46835   182.15542     4.32551
    31.30000    90.53160   177.84475     4.32546    89.46840   182.15525     4.32546
    31.40000    90.53155   177.84492     4.32541    89.46845   182.15508     4.32541
    31.50000    90.53151   177.84509     4.32536    89.46849   182.15491     4.32536
    31.60000    90.53146   177.84526     4.32531    89.46854   182.15474     4.32531
    31.70000    90.53141   177.84543     4.32527    89.46859   182.15457     4.32527
    31.80000    90.53136   177.84560     4.32522    89.46864   182.15440     4.32522
    31.90000    90.53132   177.84578     4.32517    89.46868   182.15422     4.32517
    32.00000    90.53127   177.84595     4.32512    89.46873   182.15405     4.32512
    32.10000    90.53122   177.84612     4.32507    89.46878   182.15388     4.32507
    32.20000    90.53118   177.84629     4.32503    89.46882   182.15371     4.32503
    32.30000    90.53113   177.84646     4.32498    89.46887   182.15354     4.32498
    32.40000    90.53108   177.84663     4.32493    89.46892   182.15337     4.32493
    32.50000    90.53104   177.84680     4.32488    89.46896   182.15320     4.32488
    32.60000    90.53099   177.84697     4.32483    89.46901   182.15303     4.32483
    32.70000    90.53094   177.84714     4.32479    89.46906   182.15286     4.32479
    32.80000    90.53089   177.84731     4.32474    89.46911   182.15269     4.32474
    32.90000    90.53085   177.84748     4.32469    89.46915   182.15252     4.32469
    33.00000    90.53080   177.84765     4.32464    89.46920   182.15235     4.32464
    33.10000    90.53075   177.84782     4.32459    89.46925   182.15218     4.32459
    33.20000    90.53071   177.84799     4.32455    89.46929   182.15201     4.32455
    33.30000    90.53066   177.84816     4.32450    89.46934   182.15184     4.32450
    33.40000    90.53061   177.84833     4.32445    89.46939   182.15167     4.32445
    33.50000    90.53057   177.84850     4.32440    89.46943   182.15150     4.32440
    33.60000    90.53052   177.84867     4.32435    89.46948   182.15133     4.32435
    33.70000    90.53047   177.84884     4.32430    89.46953   182.15116     4.32430
    33.80000    90.53043   177.84901     4.32426    89.46957   182.15099     4.32426
    33.90000    90.53038   177.84918     4.32421    89.46962   182.15082     4.32421
    34.00000    90.53033   177.84935     4.32416    89.46967   182.15065     4.32416
    34.10000    90.53029   177.84952     4.32411    89.46971   182.15048     4.32411
    34.20000    90.53024   177.84969     4.32406    89.46976   182.15031     4.32406
    34.30000    90.53019   177.84986     4.32402    89.46981   182.15014     4.32402
    34.40000    90.53015   177.85003     4.32397    89.46985   182.14997     4.32397
    34.50000    90.53010   177.85020     4.32392    89.46990   182.14980     4.32392
    34.60000    90.53005   177.85037     4.32387    89.46995   182.14963     4.32387
    34.70000    90.53001   177.85054     4.32382    89.46999   182.14946     4.32382
    34.80000    90.52996   177.85070     4.32377    89.47004   182.14930     4.32377
    34.90000    90.52991   177.85087     4.32373    89.47009   182.14913     4.32373
    35.00000    90.52987   177.85104     4.32368    89.47013   182.14896     4.32368
    35.10000    90.52982   177.85121     4.32363    89.47018   182.14879     4.32363
    35.20000    90.52978   177.85138     4.32358    89.47022   182.14862     4.32358
    35.30000    90.52973   177.85155     4.32353    89.47027   182.14845     4.32353
    35.40000    90.52968   177.85172     4.32349    89.47032   182.14828     4.32349
    35.50000    90.52964   177.85188     4.32344    89.47036   182.14812     4.32344
    35.60000    90.52959   177.85205     4.32339    89.47041   182.14795     4.32339
    35.70000    90.52954   177.85222     4.32334    89.47046   182.14778     4.32334
    35.80000    90.52950   177.85239     4.32329    89.47050   182.14761     4.32329
    35.90000    90.52945   177.85256     4.32324    89.47055   182.14744     4.32324
    36.00000    90.52941   177.85272     4.32320    89.47059   182.14728     4.32320
    36.10000    90.52936   177.85289     4.32315    89.47064   182.14711     4.32315
    36.20000    90.52931   177.85306     4.32310    89.47069   182.14694     4.32310
    36.30000    90.52927   177.85323     4.32305    89.47073   182.14677     4.32305
    36.40000    90.52922   177.85339     4.32300    89.47078   182.14661     4.32300
    36.50000    90.52917   177.85356     4.32295    89.47083   182.14644     4.32295
    36.60000    90.52913   177.85373     4.32291    89.47087   182.14627     4.32291
    36.70000    90.52908   177.85390     4.32286    89.47092   182.14610     4.32286
    36.80000    90.52904   177.85406     4.32281    89.47096   182.14594     4.32281
    36.90000    90.52899   177.85423     4.32276    89.47101   182.14577     4.32276
    37.00000    90.52894   177.85440     4.32271    89.47106   182.14560     4.32271
    37.10000    90.52890   177.85457     4.32266    89.47110   182.14543     4.32266
    37.20000    90.52885   177.85473     4.32262    89.47115   182.14527     4.32262
    37.30000    90.52881   177.85490     4.32257    89.47119   182.14510     4.32257
    37.40000    90.52876   177.85507     4.32252    89.47124   182.14493     4.32252
    37.50000    90.52871   177.85523     4.32247    89.47129   182.14477     4.32247
    37.60000    90.52867   177.85540     4.32242    89.47133   182.14460     4.32242
    37.70000    90.52862   177.85557     4.32237    89.47138   182.14443     4.32237
    37.80000    90.52858   177.85573     4.32233    89.47142   182.14427     4.32233
    37.90000    90.52853   177.85590     4.32228    89.47147   182.14410     4.32228
    38.00000    90.52849   177.85607     4.32223    89.47151   182.14393     4.32223
    38.10000    90.52844   177.85623     4.32218    89.47156   182.14377     4.32218
    38.20000    90.52839   177.85640     4.32213    89.47161   182.14360     4.32213
    38.30000    90.52835   177.85656     4.32208    89.47165   182.14344     4.32208
    38.40000    90.52830   177.85673     4.32204    89.47170   182.14327     4.32204
    38.50000    90.52826   177.85690     4.32199    89.47174   182.14310     4.32199
    38.60000    90.52821   177.85706     4.32194    89.47179   182.14294     4.32194
    38.70000    90.52817   177.85723     4.32189    89.47183   182.14277     4.32189
    38.80000    90.52812   177.85739     4.32184    89.47188   182.14261     4.32184
    38.90000    90.52807   177.85756     4.32179    89.47193   182.14244     4.32179
    39.00000    90.52803   177.85772     4.32175    89.47197   182.14228     4.32175
    39.10000    90.52798   177.85789     4.32170    89.47202   182.14211     4.32170
    39.20000    90.52794   177.85806     4.32165    89.47206   182.14194     4.32165
    39.30000    90.52789   177.85822     4.32160    89.47211   182.14178     4.32160
    39.40000    90.52785   177.85839     4.32155    89.47215   182.14161     4.32155
    39.50000    90.52780   177.85855     4.32150    89.47220   182.14145     4.32150
    39.60000    90.52776   177.85872     4.32145    89.47224   182.14128     4.32145
    39.70000    90.52771   177.85888     4.32141    89.47229   182.14112     4.32141
    39.80000    90.52766   177.85905     4.32136    89.47234   182.14095     4.32136
    39.90000    90.52762   177.85921     4.32131    89.47238   182.14079     4.32131
    40.00000    90.52757   177.85938     4.32126    89.47243   182.14062     4.32126
