 # applied field (T), theta (degree), phi (degree), abs for RE 1-2
     0.00000   178.74259   135.00000     3.65652   178.74259    45.00000     3.65652
     0.10000   177.94282   153.81871     3.65746   179.12554    94.41184     3.65222
     0.20000   177.09947   161.40304     3.65825   178.70579   138.63065     3.64807
     0.30000   176.17737   165.71504     3.65899   177.89661   156.53200     3.64358
     0.40000   175.24274   168.34245     3.65963   176.99733   164.15788     3.63900
     0.50000   174.30196   170.10520     3.66017   176.06838   168.23737     3.63432
     0.60000   173.35774   171.36829     3.66060   175.12586   170.75531     3.62954
     0.70000   172.41142   172.31745     3.66093   174.17557   172.45951     3.62466
     0.80000   171.46365   173.05681     3.66115   173.22005   173.68855     3.61969
     0.90000   170.51482   173.64914     3.66128   172.26051   174.61681     3.61462
     1.00000   169.56510   174.13450     3.66130   171.29761   175.34293     3.60947
     1.10000   168.61459   174.53963     3.66123   170.33169   175.92679     3.60422
     1.20000   167.61040   174.90064     3.66104   169.30900   176.43095     3.59859
     1.30000   166.60533   175.20830     3.66075   168.28324   176.84930     3.59287
     1.40000   165.65236   175.46067     3.66037   167.30869   177.18515     3.58738
     1.50000   164.64545   175.69381     3.65986   166.27700   177.48975     3.58149
     1.60000   163.58436   175.90908     3.65923   165.18761   177.76643     3.57522
     1.70000   162.57520   176.08996     3.65851   164.14947   177.99577     3.56920
     1.80000   161.51156   176.25974     3.65766   163.05314   178.20849     3.56280
     1.90000   160.44645   176.41172     3.65670   161.95311   178.39701     3.55634
     2.00000   159.37977   176.54865     3.65564   160.84925   178.56542     3.54984
     2.10000   158.25791   176.67866     3.65441   159.68595   178.72413     3.54299
     2.20000   157.13410   176.79658     3.65309   158.51818   178.86720     3.53612
     2.30000   156.00820   176.90410     3.65166   157.34583   178.99702     3.52925
     2.40000   154.82632   177.00709     3.65005   156.11257   179.12088     3.52207
     2.50000   153.58798   177.10563     3.64827   154.81757   179.23899     3.51462
     2.60000   152.40082   177.19225     3.64646   153.57334   179.34263     3.50756
     2.70000   151.10256   177.27935     3.64439   152.20965   179.44669     3.49996
     2.80000   149.80091   177.35967     3.64222   150.83926   179.54261     3.49250
     2.90000   148.44127   177.43705     3.63985   149.40455   179.63502     3.48492
     3.00000   147.02308   177.51152     3.63729   147.90456   179.72406     3.47729
     3.10000   145.60054   177.58064     3.63464   146.39654   179.80682     3.46995
     3.20000   144.06355   177.64979     3.63169   144.76355   179.88979     3.46243
     3.30000   142.52131   177.71414     3.62865   143.12140   179.96717     3.45536
     3.40000   140.86294   177.77838     3.62531   141.35202   180.04462     3.44834
     3.50000   139.08712   177.84221     3.62166   139.45376   180.12175     3.44157
     3.60000   137.24832   177.90357     3.61783   137.48495   180.19607     3.43541
     3.70000   135.23362   177.96603     3.61358   135.32505   180.27179     3.42972
     3.80000   133.09711   178.02753     3.60905   133.03268   180.34633     3.42495
     3.90000   130.78057   178.08949     3.60412   130.54668   180.42125     3.42128
     4.00000   128.22459   178.15300     3.59870   127.80535   180.49762     3.41906
     4.10000   125.36836   178.21889     3.59270   124.74694   180.57605     3.41877
     4.20000   122.09180   178.28901     3.58594   121.24874   180.65816     3.42115
     4.30000   118.21337   178.36591     3.57816   117.12739   180.74599     3.42736
     4.40000   113.36983   178.45480     3.56889   112.01760   180.84368     3.43955
     4.50000   106.53246   178.57072     3.55683   104.88754   180.96350     3.46330
     4.60000    90.95095   178.81480     3.53520    89.04905   181.18520     3.53520
     4.70000    90.95098   178.81475     3.53519    89.04902   181.18525     3.53519
     4.80000    90.95101   178.81471     3.53518    89.04899   181.18529     3.53518
     4.90000    90.95104   178.81466     3.53518    89.04896   181.18534     3.53518
     5.00000    90.95107   178.81462     3.53517    89.04893   181.18538     3.53517
     5.10000    90.95110   178.81458     3.53516    89.04890   181.18542     3.53516
     5.20000    90.95113   178.81453     3.53515    89.04887   181.18547     3.53515
     5.30000    90.95116   178.81449     3.53515    89.04884   181.18551     3.53515
     5.40000    90.95119   178.81445     3.53514    89.04881   181.18555     3.53514
     5.50000    90.95122   178.81440     3.53513    89.04878   181.18560     3.53513
     5.60000    90.95125   178.81436     3.53512    89.04875   181.18564     3.53512
     5.70000    90.95128   178.81432     3.53512    89.04872   181.18568     3.53512
     5.80000    90.95131   178.81427     3.53511    89.04869   181.18573     3.53511
     5.90000    90.95134   178.81423     3.53510    89.04866   181.18577     3.53510
     6.00000    90.95138   178.81419     3.53509    89.04862   181.18581     3.53509
     6.10000    90.95141   178.81414     3.53509    89.04859   181.18586     3.53509
     6.20000    90.95144   178.81410     3.53508    89.04856   181.18590     3.53508
     6.30000    90.95147   178.81406     3.53507    89.04853   181.18594     3.53507
     6.40000    90.95150   178.81401     3.53506    89.04850   181.18599     3.53506
     6.50000    90.95153   178.81397     3.53505    89.04847   181.18603     3.53505
     6.60000    90.95156   178.81392     3.53505    89.04844   181.18608     3.53505
     6.70000    90.95159   178.81388     3.53504    89.04841   181.18612     3.53504
     6.80000    90.95162   178.81384     3.53503    89.04838   181.18616     3.53503
     6.90000    90.95165   178.81379     3.53502    89.04835   181.18621     3.53502
     7.00000    90.95168   178.81375     3.53502    89.04832   181.18625     3.53502
     7.10000    90.95171   178.81371     3.53501    89.04829   181.18629     3.53501
     7.20000    90.95174   178.81366     3.53500    89.04826   181.18634     3.53500
     7.30000    90.95177   178.81362     3.53499    89.04823   181.18638     3.53499
     7.40000    90.95180   178.81358     3.53498    89.04820   181.18642     3.53498
     7.50000    90.95183   178.81353     3.53498    89.04817   181.18647     3.53498
     7.60000    90.95186   178.81349     3.53497    89.04814   181.18651     3.53497
     7.70000    90.95189   178.81345     3.53496    89.04811   181.18655     3.53496
     7.80000    90.95192   178.81340     3.53495    89.04808   181.18660     3.53495
     7.90000    90.95195   178.81336     3.53494    89.04805   181.18664     3.53494
     8.00000    90.95198   178.81331     3.53494    89.04802   181.18669     3.53494
     8.10000    90.95201   178.81327     3.53493    89.04799   181.18673     3.53493
     8.20000    90.95204   178.81323     3.53492    89.04796   181.18677     3.53492
     8.30000    90.95207   178.81318     3.53491    89.04793   181.18682     3.53491
     8.40000    90.95210   178.81314     3.53490    89.04790   181.18686     3.53490
     8.50000    90.95213   178.81310     3.53490    89.04787   181.18690     3.53490
     8.60000    90.95216   178.81305     3.53489    89.04784   181.18695     3.53489
     8.70000    90.95219   178.81301     3.53488    89.04781   181.18699     3.53488
     8.80000    90.95222   178.81297     3.53487    89.04778   181.18703     3.53487
     8.90000    90.95225   178.81292     3.53486    89.04775   181.18708     3.53486
     9.00000    90.95229   178.81288     3.53485    89.04771   181.18712     3.53485
     9.10000    90.95232   178.81283     3.53485    89.04768   181.18717     3.53485
     9.20000    90.95235   178.81279     3.53484    89.04765   181.18721     3.53484
     9.30000    90.95238   178.81275     3.53483    89.04762   181.18725     3.53483
     9.40000    90.95241   178.81270     3.53482    89.04759   181.18730     3.53482
     9.50000    90.95244   178.81266     3.53481    89.04756   181.18734     3.53481
     9.60000    90.95247   178.81262     3.53480    89.04753   181.18738     3.53480
     9.70000    90.95250   178.81257     3.53480    89.04750   181.18743     3.53480
     9.80000    90.95253   178.81253     3.53479    89.04747   181.18747     3.53479
     9.90000    90.95256   178.81249     3.53478    89.04744   181.18751     3.53478
    10.00000    90.95259   178.81244     3.53477    89.04741   181.18756     3.53477
    10.10000    90.95262   178.81240     3.53476    89.04738   181.18760     3.53476
    10.20000    90.95265   178.81235     3.53475    89.04735   181.18765     3.53475
    10.30000    90.95268   178.81231     3.53475    89.04732   181.18769     3.53475
    10.40000    90.95271   178.81227     3.53474    89.04729   181.18773     3.53474
    10.50000    90.95274   178.81222     3.53473    89.04726   181.18778     3.53473
    10.60000    90.95277   178.81218     3.53472    89.04723   181.18782     3.53472
    10.70000    90.95280   178.81214     3.53471    89.04720   181.18786     3.53471
    10.80000    90.95283   178.81209     3.53470    89.04717   181.18791     3.53470
    10.90000    90.95286   178.81205     3.53469    89.04714   181.18795     3.53469
    11.00000    90.95289   178.81201     3.53469    89.04711   181.18799     3.53469
    11.10000    90.95292   178.81196     3.53468    89.04708   181.18804     3.53468
    11.20000    90.95295   178.81192     3.53467    89.04705   181.18808     3.53467
    11.30000    90.95298   178.81187     3.53466    89.04702   181.18813     3.53466
    11.40000    90.95302   178.81183     3.53465    89.04698   181.18817     3.53465
    11.50000    90.95305   178.81179     3.53464    89.04695   181.18821     3.53464
    11.60000    90.95308   178.81174     3.53463    89.04692   181.18826     3.53463
    11.70000    90.95311   178.81170     3.53462    89.04689   181.18830     3.53462
    11.80000    90.95314   178.81166     3.53462    89.04686   181.18834     3.53462
    11.90000    90.95317   178.81161     3.53461    89.04683   181.18839     3.53461
    12.00000    90.95320   178.81157     3.53460    89.04680   181.18843     3.53460
    12.10000    90.95323   178.81152     3.53459    89.04677   181.18848     3.53459
    12.20000    90.95326   178.81148     3.53458    89.04674   181.18852     3.53458
    12.30000    90.95329   178.81144     3.53457    89.04671   181.18856     3.53457
    12.40000    90.95332   178.81139     3.53456    89.04668   181.18861     3.53456
    12.50000    90.95335   178.81135     3.53455    89.04665   181.18865     3.53455
    12.60000    90.95338   178.81131     3.53454    89.04662   181.18869     3.53454
    12.70000    90.95341   178.81126     3.53454    89.04659   181.18874     3.53454
    12.80000    90.95344   178.81122     3.53453    89.04656   181.18878     3.53453
    12.90000    90.95347   178.81117     3.53452    89.04653   181.18883     3.53452
    13.00000    90.95350   178.81113     3.53451    89.04650   181.18887     3.53451
    13.10000    90.95353   178.81109     3.53450    89.04647   181.18891     3.53450
    13.20000    90.95356   178.81104     3.53449    89.04644   181.18896     3.53449
    13.30000    90.95359   178.81100     3.53448    89.04641   181.18900     3.53448
    13.40000    90.95362   178.81096     3.53447    89.04638   181.18904     3.53447
    13.50000    90.95366   178.81091     3.53446    89.04634   181.18909     3.53446
    13.60000    90.95369   178.81087     3.53445    89.04631   181.18913     3.53445
    13.70000    90.95372   178.81082     3.53444    89.04628   181.18918     3.53444
    13.80000    90.95375   178.81078     3.53444    89.04625   181.18922     3.53444
    13.90000    90.95378   178.81074     3.53443    89.04622   181.18926     3.53443
    14.00000    90.95381   178.81069     3.53442    89.04619   181.18931     3.53442
    14.10000    90.95384   178.81065     3.53441    89.04616   181.18935     3.53441
    14.20000    90.95387   178.81060     3.53440    89.04613   181.18940     3.53440
    14.30000    90.95390   178.81056     3.53439    89.04610   181.18944     3.53439
    14.40000    90.95393   178.81052     3.53438    89.04607   181.18948     3.53438
    14.50000    90.95396   178.81047     3.53437    89.04604   181.18953     3.53437
    14.60000    90.95399   178.81043     3.53436    89.04601   181.18957     3.53436
    14.70000    90.95402   178.81039     3.53435    89.04598   181.18961     3.53435
    14.80000    90.95405   178.81034     3.53434    89.04595   181.18966     3.53434
    14.90000    90.95408   178.81030     3.53433    89.04592   181.18970     3.53433
    15.00000    90.95411   178.81025     3.53432    89.04589   181.18975     3.53432
    15.10000    90.95414   178.81021     3.53431    89.04586   181.18979     3.53431
    15.20000    90.95417   178.81017     3.53430    89.04583   181.18983     3.53430
    15.30000    90.95421   178.81012     3.53430    89.04579   181.18988     3.53430
    15.40000    90.95424   178.81008     3.53429    89.04576   181.18992     3.53429
    15.50000    90.95427   178.81003     3.53428    89.04573   181.18997     3.53428
    15.60000    90.95430   178.80999     3.53427    89.04570   181.19001     3.53427
    15.70000    90.95433   178.80995     3.53426    89.04567   181.19005     3.53426
    15.80000    90.95436   178.80990     3.53425    89.04564   181.19010     3.53425
    15.90000    90.95439   178.80986     3.53424    89.04561   181.19014     3.53424
    16.00000    90.95442   178.80982     3.53423    89.04558   181.19018     3.53423
    16.10000    90.95445   178.80977     3.53422    89.04555   181.19023     3.53422
    16.20000    90.95448   178.80973     3.53421    89.04552   181.19027     3.53421
    16.30000    90.95451   178.80968     3.53420    89.04549   181.19032     3.53420
    16.40000    90.95454   178.80964     3.53419    89.04546   181.19036     3.53419
    16.50000    90.95457   178.80960     3.53418    89.04543   181.19040     3.53418
    16.60000    90.95460   178.80955     3.53417    89.04540   181.19045     3.53417
    16.70000    90.95463   178.80951     3.53416    89.04537   181.19049     3.53416
    16.80000    90.95466   178.80946     3.53415    89.04534   181.19054     3.53415
    16.90000    90.95470   178.80942     3.53414    89.04530   181.19058     3.53414
    17.00000    90.95473   178.80938     3.53413    89.04527   181.19062     3.53413
    17.10000    90.95476   178.80933     3.53412    89.04524   181.19067     3.53412
    17.20000    90.95479   178.80929     3.53411    89.04521   181.19071     3.53411
    17.30000    90.95482   178.80924     3.53410    89.04518   181.19076     3.53410
    17.40000    90.95485   178.80920     3.53409    89.04515   181.19080     3.53409
    17.50000    90.95488   178.80916     3.53408    89.04512   181.19084     3.53408
    17.60000    90.95491   178.80911     3.53407    89.04509   181.19089     3.53407
    17.70000    90.95494   178.80907     3.53406    89.04506   181.19093     3.53406
    17.80000    90.95497   178.80903     3.53405    89.04503   181.19097     3.53405
    17.90000    90.95500   178.80898     3.53404    89.04500   181.19102     3.53404
    18.00000    90.95503   178.80894     3.53403    89.04497   181.19106     3.53403
    18.10000    90.95506   178.80889     3.53402    89.04494   181.19111     3.53402
    18.20000    90.95509   178.80885     3.53401    89.04491   181.19115     3.53401
    18.30000    90.95512   178.80881     3.53400    89.04488   181.19119     3.53400
    18.40000    90.95516   178.80876     3.53399    89.04484   181.19124     3.53399
    18.50000    90.95519   178.80872     3.53398    89.04481   181.19128     3.53398
    18.60000    90.95522   178.80867     3.53397    89.04478   181.19133     3.53397
    18.70000    90.95525   178.80863     3.53396    89.04475   181.19137     3.53396
    18.80000    90.95528   178.80859     3.53395    89.04472   181.19141     3.53395
    18.90000    90.95531   178.80854     3.53394    89.04469   181.19146     3.53394
    19.00000    90.95534   178.80850     3.53393    89.04466   181.19150     3.53393
    19.10000    90.95537   178.80845     3.53392    89.04463   181.19155     3.53392
    19.20000    90.95540   178.80841     3.53391    89.04460   181.19159     3.53391
    19.30000    90.95543   178.80837     3.53390    89.04457   181.19163     3.53390
    19.40000    90.95546   178.80832     3.53389    89.04454   181.19168     3.53389
    19.50000    90.95549   178.80828     3.53388    89.04451   181.19172     3.53388
    19.60000    90.95552   178.80823     3.53387    89.04448   181.19177     3.53387
    19.70000    90.95555   178.80819     3.53386    89.04445   181.19181     3.53386
    19.80000    90.95559   178.80815     3.53385    89.04441   181.19185     3.53385
    19.90000    90.95562   178.80810     3.53384    89.04438   181.19190     3.53384
    20.00000    90.95565   178.80806     3.53383    89.04435   181.19194     3.53383
    20.10000    90.95568   178.80801     3.53382    89.04432   181.19199     3.53382
    20.20000    90.95571   178.80797     3.53381    89.04429   181.19203     3.53381
    20.30000    90.95574   178.80793     3.53380    89.04426   181.19207     3.53380
    20.40000    90.95577   178.80788     3.53379    89.04423   181.19212     3.53379
    20.50000    90.95580   178.80784     3.53378    89.04420   181.19216     3.53378
    20.60000    90.95583   178.80779     3.53376    89.04417   181.19221     3.53376
    20.70000    90.95586   178.80775     3.53375    89.04414   181.19225     3.53375
    20.80000    90.95589   178.80770     3.53374    89.04411   181.19230     3.53374
    20.90000    90.95592   178.80766     3.53373    89.04408   181.19234     3.53373
    21.00000    90.95595   178.80762     3.53372    89.04405   181.19238     3.53372
    21.10000    90.95599   178.80757     3.53371    89.04401   181.19243     3.53371
    21.20000    90.95602   178.80753     3.53370    89.04398   181.19247     3.53370
    21.30000    90.95605   178.80748     3.53369    89.04395   181.19252     3.53369
    21.40000    90.95608   178.80744     3.53368    89.04392   181.19256     3.53368
    21.50000    90.95611   178.80740     3.53367    89.04389   181.19260     3.53367
    21.60000    90.95614   178.80735     3.53366    89.04386   181.19265     3.53366
    21.70000    90.95617   178.80731     3.53365    89.04383   181.19269     3.53365
    21.80000    90.95620   178.80726     3.53364    89.04380   181.19274     3.53364
    21.90000    90.95623   178.80722     3.53363    89.04377   181.19278     3.53363
    22.00000    90.95626   178.80718     3.53362    89.04374   181.19282     3.53362
    22.10000    90.95629   178.80713     3.53360    89.04371   181.19287     3.53360
    22.20000    90.95632   178.80709     3.53359    89.04368   181.19291     3.53359
    22.30000    90.95636   178.80704     3.53358    89.04364   181.19296     3.53358
    22.40000    90.95639   178.80700     3.53357    89.04361   181.19300     3.53357
    22.50000    90.95642   178.80696     3.53356    89.04358   181.19304     3.53356
    22.60000    90.95645   178.80691     3.53355    89.04355   181.19309     3.53355
    22.70000    90.95648   178.80687     3.53354    89.04352   181.19313     3.53354
    22.80000    90.95651   178.80682     3.53353    89.04349   181.19318     3.53353
    22.90000    90.95654   178.80678     3.53352    89.04346   181.19322     3.53352
    23.00000    90.95657   178.80673     3.53351    89.04343   181.19327     3.53351
    23.10000    90.95660   178.80669     3.53350    89.04340   181.19331     3.53350
    23.20000    90.95663   178.80665     3.53348    89.04337   181.19335     3.53348
    23.30000    90.95666   178.80660     3.53347    89.04334   181.19340     3.53347
    23.40000    90.95669   178.80656     3.53346    89.04331   181.19344     3.53346
    23.50000    90.95673   178.80651     3.53345    89.04327   181.19349     3.53345
    23.60000    90.95676   178.80647     3.53344    89.04324   181.19353     3.53344
    23.70000    90.95679   178.80643     3.53343    89.04321   181.19357     3.53343
    23.80000    90.95682   178.80638     3.53342    89.04318   181.19362     3.53342
    23.90000    90.95685   178.80634     3.53341    89.04315   181.19366     3.53341
    24.00000    90.95688   178.80629     3.53340    89.04312   181.19371     3.53340
    24.10000    90.95691   178.80625     3.53338    89.04309   181.19375     3.53338
    24.20000    90.95694   178.80620     3.53337    89.04306   181.19380     3.53337
    24.30000    90.95697   178.80616     3.53336    89.04303   181.19384     3.53336
    24.40000    90.95700   178.80612     3.53335    89.04300   181.19388     3.53335
    24.50000    90.95703   178.80607     3.53334    89.04297   181.19393     3.53334
    24.60000    90.95707   178.80603     3.53333    89.04293   181.19397     3.53333
    24.70000    90.95710   178.80598     3.53332    89.04290   181.19402     3.53332
    24.80000    90.95713   178.80594     3.53331    89.04287   181.19406     3.53331
    24.90000    90.95716   178.80590     3.53329    89.04284   181.19410     3.53329
    25.00000    90.95719   178.80585     3.53328    89.04281   181.19415     3.53328
    25.10000    90.95722   178.80581     3.53327    89.04278   181.19419     3.53327
    25.20000    90.95725   178.80576     3.53326    89.04275   181.19424     3.53326
    25.30000    90.95728   178.80572     3.53325    89.04272   181.19428     3.53325
    25.40000    90.95731   178.80567     3.53324    89.04269   181.19433     3.53324
    25.50000    90.95734   178.80563     3.53323    89.04266   181.19437     3.53323
    25.60000    90.95738   178.80559     3.53321    89.04262   181.19441     3.53321
    25.70000    90.95741   178.80554     3.53320    89.04259   181.19446     3.53320
    25.80000    90.95744   178.80550     3.53319    89.04256   181.19450     3.53319
    25.90000    90.95747   178.80545     3.53318    89.04253   181.19455     3.53318
    26.00000    90.95750   178.80541     3.53317    89.04250   181.19459     3.53317
    26.10000    90.95753   178.80536     3.53316    89.04247   181.19464     3.53316
    26.20000    90.95756   178.80532     3.53314    89.04244   181.19468     3.53314
    26.30000    90.95759   178.80528     3.53313    89.04241   181.19472     3.53313
    26.40000    90.95762   178.80523     3.53312    89.04238   181.19477     3.53312
    26.50000    90.95765   178.80519     3.53311    89.04235   181.19481     3.53311
    26.60000    90.95768   178.80514     3.53310    89.04232   181.19486     3.53310
    26.70000    90.95772   178.80510     3.53309    89.04228   181.19490     3.53309
    26.80000    90.95775   178.80505     3.53307    89.04225   181.19495     3.53307
    26.90000    90.95778   178.80501     3.53306    89.04222   181.19499     3.53306
    27.00000    90.95781   178.80497     3.53305    89.04219   181.19503     3.53305
    27.10000    90.95784   178.80492     3.53304    89.04216   181.19508     3.53304
    27.20000    90.95787   178.80488     3.53303    89.04213   181.19512     3.53303
    27.30000    90.95790   178.80483     3.53302    89.04210   181.19517     3.53302
    27.40000    90.95793   178.80479     3.53300    89.04207   181.19521     3.53300
    27.50000    90.95796   178.80474     3.53299    89.04204   181.19526     3.53299
    27.60000    90.95800   178.80470     3.53298    89.04200   181.19530     3.53298
    27.70000    90.95803   178.80466     3.53297    89.04197   181.19534     3.53297
    27.80000    90.95806   178.80461     3.53296    89.04194   181.19539     3.53296
    27.90000    90.95809   178.80457     3.53294    89.04191   181.19543     3.53294
    28.00000    90.95812   178.80452     3.53293    89.04188   181.19548     3.53293
    28.10000    90.95815   178.80448     3.53292    89.04185   181.19552     3.53292
    28.20000    90.95818   178.80443     3.53291    89.04182   181.19557     3.53291
    28.30000    90.95821   178.80439     3.53290    89.04179   181.19561     3.53290
    28.40000    90.95824   178.80434     3.53288    89.04176   181.19566     3.53288
    28.50000    90.95827   178.80430     3.53287    89.04173   181.19570     3.53287
    28.60000    90.95831   178.80426     3.53286    89.04169   181.19574     3.53286
    28.70000    90.95834   178.80421     3.53285    89.04166   181.19579     3.53285
    28.80000    90.95837   178.80417     3.53284    89.04163   181.19583     3.53284
    28.90000    90.95840   178.80412     3.53282    89.04160   181.19588     3.53282
    29.00000    90.95843   178.80408     3.53281    89.04157   181.19592     3.53281
    29.10000    90.95846   178.80403     3.53280    89.04154   181.19597     3.53280
    29.20000    90.95849   178.80399     3.53279    89.04151   181.19601     3.53279
    29.30000    90.95852   178.80395     3.53277    89.04148   181.19605     3.53277
    29.40000    90.95855   178.80390     3.53276    89.04145   181.19610     3.53276
    29.50000    90.95859   178.80386     3.53275    89.04141   181.19614     3.53275
    29.60000    90.95862   178.80381     3.53274    89.04138   181.19619     3.53274
    29.70000    90.95865   178.80377     3.53273    89.04135   181.19623     3.53273
    29.80000    90.95868   178.80372     3.53271    89.04132   181.19628     3.53271
    29.90000    90.95871   178.80368     3.53270    89.04129   181.19632     3.53270
    30.00000    90.95874   178.80363     3.53269    89.04126   181.19637     3.53269
    30.10000    90.95877   178.80359     3.53268    89.04123   181.19641     3.53268
    30.20000    90.95880   178.80355     3.53266    89.04120   181.19645     3.53266
    30.30000    90.95883   178.80350     3.53265    89.04117   181.19650     3.53265
    30.40000    90.95887   178.80346     3.53264    89.04113   181.19654     3.53264
    30.50000    90.95890   178.80341     3.53263    89.04110   181.19659     3.53263
    30.60000    90.95893   178.80337     3.53261    89.04107   181.19663     3.53261
    30.70000    90.95896   178.80332     3.53260    89.04104   181.19668     3.53260
    30.80000    90.95899   178.80328     3.53259    89.04101   181.19672     3.53259
    30.90000    90.95902   178.80323     3.53258    89.04098   181.19677     3.53258
    31.00000    90.95905   178.80319     3.53256    89.04095   181.19681     3.53256
    31.10000    90.95908   178.80315     3.53255    89.04092   181.19685     3.53255
    31.20000    90.95911   178.80310     3.53254    89.04089   181.19690     3.53254
    31.30000    90.95915   178.80306     3.53253    89.04085   181.19694     3.53253
    31.40000    90.95918   178.80301     3.53251    89.04082   181.19699     3.53251
    31.50000    90.95921   178.80297     3.53250    89.04079   181.19703     3.53250
    31.60000    90.95924   178.80292     3.53249    89.04076   181.19708     3.53249
    31.70000    90.95927   178.80288     3.53247    89.04073   181.19712     3.53247
    31.80000    90.95930   178.80283     3.53246    89.04070   181.19717     3.53246
    31.90000    90.95933   178.80279     3.53245    89.04067   181.19721     3.53245
    32.00000    90.95936   178.80274     3.53244    89.04064   181.19726     3.53244
    32.10000    90.95940   178.80270     3.53242    89.04060   181.19730     3.53242
    32.20000    90.95943   178.80266     3.53241    89.04057   181.19734     3.53241
    32.30000    90.95946   178.80261     3.53240    89.04054   181.19739     3.53240
    32.40000    90.95949   178.80257     3.53239    89.04051   181.19743     3.53239
    32.50000    90.95952   178.80252     3.53237    89.04048   181.19748     3.53237
    32.60000    90.95955   178.80248     3.53236    89.04045   181.19752     3.53236
    32.70000    90.95958   178.80243     3.53235    89.04042   181.19757     3.53235
    32.80000    90.95961   178.80239     3.53233    89.04039   181.19761     3.53233
    32.90000    90.95965   178.80234     3.53232    89.04035   181.19766     3.53232
    33.00000    90.95968   178.80230     3.53231    89.04032   181.19770     3.53231
    33.10000    90.95971   178.80225     3.53230    89.04029   181.19775     3.53230
    33.20000    90.95974   178.80221     3.53228    89.04026   181.19779     3.53228
    33.30000    90.95977   178.80217     3.53227    89.04023   181.19783     3.53227
    33.40000    90.95980   178.80212     3.53226    89.04020   181.19788     3.53226
    33.50000    90.95983   178.80208     3.53224    89.04017   181.19792     3.53224
    33.60000    90.95986   178.80203     3.53223    89.04014   181.19797     3.53223
    33.70000    90.95990   178.80199     3.53222    89.04010   181.19801     3.53222
    33.80000    90.95993   178.80194     3.53220    89.04007   181.19806     3.53220
    33.90000    90.95996   178.80190     3.53219    89.04004   181.19810     3.53219
    34.00000    90.95999   178.80185     3.53218    89.04001   181.19815     3.53218
    34.10000    90.96002   178.80181     3.53216    89.03998   181.19819     3.53216
    34.20000    90.96005   178.80176     3.53215    89.03995   181.19824     3.53215
    34.30000    90.96008   178.80172     3.53214    89.03992   181.19828     3.53214
    34.40000    90.96011   178.80167     3.53212    89.03989   181.19833     3.53212
    34.50000    90.96015   178.80163     3.53211    89.03985   181.19837     3.53211
    34.60000    90.96018   178.80159     3.53210    89.03982   181.19841     3.53210
    34.70000    90.96021   178.80154     3.53208    89.03979   181.19846     3.53208
    34.80000    90.96024   178.80150     3.53207    89.03976   181.19850     3.53207
    34.90000    90.96027   178.80145     3.53206    89.03973   181.19855     3.53206
    35.00000    90.96030   178.80141     3.53204    89.03970   181.19859     3.53204
    35.10000    90.96033   178.80136     3.53203    89.03967   181.19864     3.53203
    35.20000    90.96037   178.80132     3.53202    89.03963   181.19868     3.53202
    35.30000    90.96040   178.80127     3.53200    89.03960   181.19873     3.53200
    35.40000    90.96043   178.80123     3.53199    89.03957   181.19877     3.53199
    35.50000    90.96046   178.80118     3.53198    89.03954   181.19882     3.53198
    35.60000    90.96049   178.80114     3.53196    89.03951   181.19886     3.53196
    35.70000    90.96052   178.80109     3.53195    89.03948   181.19891     3.53195
    35.80000    90.96055   178.80105     3.53194    89.03945   181.19895     3.53194
    35.90000    90.96059   178.80100     3.53192    89.03941   181.19900     3.53192
    36.00000    90.96062   178.80096     3.53191    89.03938   181.19904     3.53191
    36.10000    90.96065   178.80092     3.53190    89.03935   181.19908     3.53190
    36.20000    90.96068   178.80087     3.53188    89.03932   181.19913     3.53188
    36.30000    90.96071   178.80083     3.53187    89.03929   181.19917     3.53187
    36.40000    90.96074   178.80078     3.53186    89.03926   181.19922     3.53186
    36.50000    90.96077   178.80074     3.53184    89.03923   181.19926     3.53184
    36.60000    90.96080   178.80069     3.53183    89.03920   181.19931     3.53183
    36.70000    90.96084   178.80065     3.53181    89.03916   181.19935     3.53181
    36.80000    90.96087   178.80060     3.53180    89.03913   181.19940     3.53180
    36.90000    90.96090   178.80056     3.53179    89.03910   181.19944     3.53179
    37.00000    90.96093   178.80051     3.53177    89.03907   181.19949     3.53177
    37.10000    90.96096   178.80047     3.53176    89.03904   181.19953     3.53176
    37.20000    90.96099   178.80042     3.53175    89.03901   181.19958     3.53175
    37.30000    90.96102   178.80038     3.53173    89.03898   181.19962     3.53173
    37.40000    90.96106   178.80033     3.53172    89.03894   181.19967     3.53172
    37.50000    90.96109   178.80029     3.53170    89.03891   181.19971     3.53170
    37.60000    90.96112   178.80024     3.53169    89.03888   181.19976     3.53169
    37.70000    90.96115   178.80020     3.53168    89.03885   181.19980     3.53168
    37.80000    90.96118   178.80015     3.53166    89.03882   181.19985     3.53166
    37.90000    90.96121   178.80011     3.53165    89.03879   181.19989     3.53165
    38.00000    90.96124   178.80007     3.53163    89.03876   181.19993     3.53163
    38.10000    90.96128   178.80002     3.53162    89.03872   181.19998     3.53162
    38.20000    90.96131   178.79998     3.53161    89.03869   181.20002     3.53161
    38.30000    90.96134   178.79993     3.53159    89.03866   181.20007     3.53159
    38.40000    90.96137   178.79989     3.53158    89.03863   181.20011     3.53158
    38.50000    90.96140   178.79984     3.53156    89.03860   181.20016     3.53156
    38.60000    90.96143   178.79980     3.53155    89.03857   181.20020     3.53155
    38.70000    90.96147   178.79975     3.53154    89.03853   181.20025     3.53154
    38.80000    90.96150   178.79971     3.53152    89.03850   181.20029     3.53152
    38.90000    90.96153   178.79966     3.53151    89.03847   181.20034     3.53151
    39.00000    90.96156   178.79962     3.53149    89.03844   181.20038     3.53149
    39.10000    90.96159   178.79957     3.53148    89.03841   181.20043     3.53148
    39.20000    90.96162   178.79953     3.53147    89.03838   181.20047     3.53147
    39.30000    90.96165   178.79948     3.53145    89.03835   181.20052     3.53145
    39.40000    90.96169   178.79944     3.53144    89.03831   181.20056     3.53144
    39.50000    90.96172   178.79939     3.53142    89.03828   181.20061     3.53142
    39.60000    90.96175   178.79935     3.53141    89.03825   181.20065     3.53141
    39.70000    90.96178   178.79930     3.53139    89.03822   181.20070     3.53139
    39.80000    90.96181   178.79926     3.53138    89.03819   181.20074     3.53138
    39.90000    90.96184   178.79921     3.53137    89.03816   181.20079     3.53137
    40.00000    90.96187   178.79917     3.53135    89.03813   181.20083     3.53135
