 # applied field (T), theta (degree), phi (degree), abs for RE 3-4
     0.00000   178.53697   315.00000     3.98232   178.53697   225.00000     3.98232
     0.10000   178.91823   289.39594     3.97925   177.99352   211.53511     3.98292
     0.20000   178.95865   255.28696     3.97636   177.43588   204.49492     3.98343
     0.30000   178.63227   226.54355     3.97317   176.80467   199.71377     3.98391
     0.40000   178.10957   211.16604     3.96992   176.15898   196.52485     3.98433
     0.50000   177.55833   203.27555     3.96686   175.55567   194.40937     3.98466
     0.60000   176.92819   198.01677     3.96349   174.89718   192.68414     3.98497
     0.70000   176.28029   194.56177     3.96005   174.23531   191.35379     3.98521
     0.80000   175.67298   192.29432     3.95682   173.62229   190.37099     3.98538
     0.90000   175.00847   190.46025     3.95326   172.95649   189.49904     3.98550
     1.00000   174.33907   189.05518     3.94964   172.28935   188.77732     3.98557
     1.10000   173.66594   187.94511     3.94595   171.62112   188.17008     3.98557
     1.20000   172.98977   187.04621     3.94219   170.95195   187.65207     3.98552
     1.30000   172.31099   186.30348     3.93837   170.28196   187.20492     3.98540
     1.40000   171.62987   185.67938     3.93449   169.61120   186.81495     3.98523
     1.50000   170.89393   185.10984     3.93024   168.88800   186.44707     3.98499
     1.60000   170.20843   184.65595     3.92623   168.21572   186.14544     3.98470
     1.70000   169.52094   184.25995     3.92215   167.54270   185.87591     3.98435
     1.80000   168.77835   183.88621     3.91770   166.81706   185.61589     3.98392
     1.90000   168.03351   183.55734     3.91319   166.09053   185.38251     3.98343
     2.00000   167.33984   183.28528     3.90893   165.41509   185.18620     3.98292
     2.10000   166.59059   183.02247     3.90429   164.68674   184.99368     3.98231
     2.20000   165.83902   182.78616     3.89960   163.95738   184.81819     3.98165
     2.30000   165.03113   182.55796     3.89450   163.17476   184.64653     3.98087
     2.40000   164.27461   182.36486     3.88969   162.44319   184.49971     3.98009
     2.50000   163.46133   182.17634     3.88449   161.65808   184.35491     3.97919
     2.60000   162.69967   182.01523     3.87959   160.92411   184.23012     3.97830
     2.70000   161.82605   181.84639     3.87394   160.08373   184.09827     3.97723
     2.80000   161.00393   181.70099     3.86861   159.29438   183.98394     3.97616
     2.90000   160.17874   181.56653     3.86325   158.50351   183.87759     3.97504
     3.00000   159.29508   181.43374     3.85750   157.65817   183.77198     3.97379
     3.10000   158.40779   181.31063     3.85174   156.81099   183.67363     3.97248
     3.20000   157.46098   181.18920     3.84562   155.90877   183.57622     3.97104
     3.30000   156.56598   181.08271     3.83985   155.05762   183.49055     3.96963
     3.40000   155.55453   180.97096     3.83339   154.09767   183.40039     3.96799
     3.50000   154.59475   180.87236     3.82732   153.18869   183.32071     3.96639
     3.60000   153.57367   180.77452     3.82094   152.22366   183.24154     3.96465
     3.70000   152.49042   180.67779     3.81429   151.20210   183.16320     3.96276
     3.80000   151.40151   180.58704     3.80773   150.17750   183.08970     3.96082
     3.90000   150.24917   180.49729     3.80096   149.09563   183.01703     3.95873
     4.00000   149.03246   180.40875     3.79403   147.95595   182.94542     3.95649
     4.10000   147.80883   180.32542     3.78731   146.81242   182.87813     3.95422
     4.20000   146.51960   180.24313     3.78052   145.61029   182.81181     3.95180
     4.30000   145.16385   180.16200     3.77375   144.34897   182.74658     3.94923
     4.40000   143.68126   180.07893     3.76680   142.97269   182.67995     3.94641
     4.50000   142.12976   179.99756     3.76008   141.53555   182.61488     3.94346
     4.60000   140.50868   179.91793     3.75371   140.03691   182.55139     3.94038
     4.70000   138.69632   179.83465     3.74741   138.36441   182.48518     3.93696
     4.80000   136.75115   179.75122     3.74165   136.57203   182.41899     3.93331
     4.90000   134.61086   179.66567     3.73657   134.60193   182.35121     3.92935
     5.00000   132.21232   179.57661     3.73246   132.39512   182.28064     3.92499
     5.10000   129.43011   179.48115     3.72979   129.83423   182.20476     3.92006
     5.20000   126.20046   179.37944     3.72945   126.85648   182.12335     3.91450
     5.30000   122.14972   179.26364     3.73298   123.10817   182.02930     3.90782
     5.40000   116.53327   179.12090     3.74430   117.87419   181.91004     3.89910
     5.50000   106.21097   178.89915     3.77996   108.10154   181.71214     3.88458
     5.60000    88.87628   178.59876     3.86409    91.12372   181.40124     3.86409
     5.70000    88.87628   178.59875     3.86409    91.12372   181.40125     3.86409
     5.80000    88.87628   178.59874     3.86409    91.12372   181.40126     3.86409
     5.90000    88.87627   178.59873     3.86409    91.12373   181.40127     3.86409
     6.00000    88.87627   178.59872     3.86409    91.12373   181.40128     3.86409
     6.10000    88.87627   178.59871     3.86409    91.12373   181.40129     3.86409
     6.20000    88.87627   178.59869     3.86409    91.12373   181.40131     3.86409
     6.30000    88.87627   178.59868     3.86409    91.12373   181.40132     3.86409
     6.40000    88.87627   178.59867     3.86409    91.12373   181.40133     3.86409
     6.50000    88.87627   178.59866     3.86409    91.12373   181.40134     3.86409
     6.60000    88.87626   178.59865     3.86409    91.12374   181.40135     3.86409
     6.70000    88.87626   178.59864     3.86409    91.12374   181.40136     3.86409
     6.80000    88.87626   178.59862     3.86409    91.12374   181.40138     3.86409
     6.90000    88.87626   178.59861     3.86409    91.12374   181.40139     3.86409
     7.00000    88.87626   178.59860     3.86409    91.12374   181.40140     3.86409
     7.10000    88.87626   178.59859     3.86409    91.12374   181.40141     3.86409
     7.20000    88.87625   178.59858     3.86409    91.12375   181.40142     3.86409
     7.30000    88.87625   178.59857     3.86409    91.12375   181.40143     3.86409
     7.40000    88.87625   178.59855     3.86410    91.12375   181.40145     3.86410
     7.50000    88.87625   178.59854     3.86410    91.12375   181.40146     3.86410
     7.60000    88.87625   178.59853     3.86410    91.12375   181.40147     3.86410
     7.70000    88.87625   178.59852     3.86410    91.12375   181.40148     3.86410
     7.80000    88.87624   178.59851     3.86410    91.12376   181.40149     3.86410
     7.90000    88.87624   178.59850     3.86410    91.12376   181.40150     3.86410
     8.00000    88.87624   178.59849     3.86410    91.12376   181.40151     3.86410
     8.10000    88.87624   178.59847     3.86410    91.12376   181.40153     3.86410
     8.20000    88.87624   178.59846     3.86410    91.12376   181.40154     3.86410
     8.30000    88.87624   178.59845     3.86410    91.12376   181.40155     3.86410
     8.40000    88.87623   178.59844     3.86410    91.12377   181.40156     3.86410
     8.50000    88.87623   178.59843     3.86410    91.12377   181.40157     3.86410
     8.60000    88.87623   178.59842     3.86410    91.12377   181.40158     3.86410
     8.70000    88.87623   178.59840     3.86410    91.12377   181.40160     3.86410
     8.80000    88.87623   178.59839     3.86410    91.12377   181.40161     3.86410
     8.90000    88.87623   178.59838     3.86410    91.12377   181.40162     3.86410
     9.00000    88.87622   178.59837     3.86410    91.12378   181.40163     3.86410
     9.10000    88.87622   178.59836     3.86410    91.12378   181.40164     3.86410
     9.20000    88.87622   178.59834     3.86410    91.12378   181.40166     3.86410
     9.30000    88.87622   178.59833     3.86410    91.12378   181.40167     3.86410
     9.40000    88.87622   178.59832     3.86410    91.12378   181.40168     3.86410
     9.50000    88.87621   178.59831     3.86410    91.12379   181.40169     3.86410
     9.60000    88.87621   178.59830     3.86410    91.12379   181.40170     3.86410
     9.70000    88.87621   178.59829     3.86410    91.12379   181.40171     3.86410
     9.80000    88.87621   178.59827     3.86410    91.12379   181.40173     3.86410
     9.90000    88.87621   178.59826     3.86410    91.12379   181.40174     3.86410
    10.00000    88.87621   178.59825     3.86410    91.12379   181.40175     3.86410
    10.10000    88.87620   178.59824     3.86410    91.12380   181.40176     3.86410
    10.20000    88.87620   178.59823     3.86410    91.12380   181.40177     3.86410
    10.30000    88.87620   178.59822     3.86410    91.12380   181.40178     3.86410
    10.40000    88.87620   178.59820     3.86410    91.12380   181.40180     3.86410
    10.50000    88.87620   178.59819     3.86410    91.12380   181.40181     3.86410
    10.60000    88.87619   178.59818     3.86410    91.12381   181.40182     3.86410
    10.70000    88.87619   178.59817     3.86410    91.12381   181.40183     3.86410
    10.80000    88.87619   178.59816     3.86410    91.12381   181.40184     3.86410
    10.90000    88.87619   178.59814     3.86410    91.12381   181.40186     3.86410
    11.00000    88.87619   178.59813     3.86410    91.12381   181.40187     3.86410
    11.10000    88.87618   178.59812     3.86410    91.12382   181.40188     3.86410
    11.20000    88.87618   178.59811     3.86410    91.12382   181.40189     3.86410
    11.30000    88.87618   178.59810     3.86410    91.12382   181.40190     3.86410
    11.40000    88.87618   178.59808     3.86410    91.12382   181.40192     3.86410
    11.50000    88.87618   178.59807     3.86409    91.12382   181.40193     3.86409
    11.60000    88.87617   178.59806     3.86409    91.12383   181.40194     3.86409
    11.70000    88.87617   178.59805     3.86409    91.12383   181.40195     3.86409
    11.80000    88.87617   178.59804     3.86409    91.12383   181.40196     3.86409
    11.90000    88.87617   178.59803     3.86409    91.12383   181.40197     3.86409
    12.00000    88.87617   178.59801     3.86409    91.12383   181.40199     3.86409
    12.10000    88.87616   178.59800     3.86409    91.12384   181.40200     3.86409
    12.20000    88.87616   178.59799     3.86409    91.12384   181.40201     3.86409
    12.30000    88.87616   178.59798     3.86409    91.12384   181.40202     3.86409
    12.40000    88.87616   178.59797     3.86409    91.12384   181.40203     3.86409
    12.50000    88.87616   178.59795     3.86409    91.12384   181.40205     3.86409
    12.60000    88.87615   178.59794     3.86409    91.12385   181.40206     3.86409
    12.70000    88.87615   178.59793     3.86409    91.12385   181.40207     3.86409
    12.80000    88.87615   178.59792     3.86409    91.12385   181.40208     3.86409
    12.90000    88.87615   178.59791     3.86409    91.12385   181.40209     3.86409
    13.00000    88.87615   178.59789     3.86409    91.12385   181.40211     3.86409
    13.10000    88.87614   178.59788     3.86409    91.12386   181.40212     3.86409
    13.20000    88.87614   178.59787     3.86409    91.12386   181.40213     3.86409
    13.30000    88.87614   178.59786     3.86408    91.12386   181.40214     3.86408
    13.40000    88.87614   178.59785     3.86408    91.12386   181.40215     3.86408
    13.50000    88.87614   178.59783     3.86408    91.12386   181.40217     3.86408
    13.60000    88.87613   178.59782     3.86408    91.12387   181.40218     3.86408
    13.70000    88.87613   178.59781     3.86408    91.12387   181.40219     3.86408
    13.80000    88.87613   178.59780     3.86408    91.12387   181.40220     3.86408
    13.90000    88.87613   178.59779     3.86408    91.12387   181.40221     3.86408
    14.00000    88.87613   178.59777     3.86408    91.12387   181.40223     3.86408
    14.10000    88.87612   178.59776     3.86408    91.12388   181.40224     3.86408
    14.20000    88.87612   178.59775     3.86408    91.12388   181.40225     3.86408
    14.30000    88.87612   178.59774     3.86408    91.12388   181.40226     3.86408
    14.40000    88.87612   178.59772     3.86408    91.12388   181.40228     3.86408
    14.50000    88.87611   178.59771     3.86407    91.12389   181.40229     3.86407
    14.60000    88.87611   178.59770     3.86407    91.12389   181.40230     3.86407
    14.70000    88.87611   178.59769     3.86407    91.12389   181.40231     3.86407
    14.80000    88.87611   178.59768     3.86407    91.12389   181.40232     3.86407
    14.90000    88.87611   178.59766     3.86407    91.12389   181.40234     3.86407
    15.00000    88.87610   178.59765     3.86407    91.12390   181.40235     3.86407
    15.10000    88.87610   178.59764     3.86407    91.12390   181.40236     3.86407
    15.20000    88.87610   178.59763     3.86407    91.12390   181.40237     3.86407
    15.30000    88.87610   178.59762     3.86407    91.12390   181.40238     3.86407
    15.40000    88.87609   178.59760     3.86407    91.12391   181.40240     3.86407
    15.50000    88.87609   178.59759     3.86406    91.12391   181.40241     3.86406
    15.60000    88.87609   178.59758     3.86406    91.12391   181.40242     3.86406
    15.70000    88.87609   178.59757     3.86406    91.12391   181.40243     3.86406
    15.80000    88.87609   178.59755     3.86406    91.12391   181.40245     3.86406
    15.90000    88.87608   178.59754     3.86406    91.12392   181.40246     3.86406
    16.00000    88.87608   178.59753     3.86406    91.12392   181.40247     3.86406
    16.10000    88.87608   178.59752     3.86406    91.12392   181.40248     3.86406
    16.20000    88.87608   178.59751     3.86406    91.12392   181.40249     3.86406
    16.30000    88.87607   178.59749     3.86405    91.12393   181.40251     3.86405
    16.40000    88.87607   178.59748     3.86405    91.12393   181.40252     3.86405
    16.50000    88.87607   178.59747     3.86405    91.12393   181.40253     3.86405
    16.60000    88.87607   178.59746     3.86405    91.12393   181.40254     3.86405
    16.70000    88.87606   178.59744     3.86405    91.12394   181.40256     3.86405
    16.80000    88.87606   178.59743     3.86405    91.12394   181.40257     3.86405
    16.90000    88.87606   178.59742     3.86405    91.12394   181.40258     3.86405
    17.00000    88.87606   178.59741     3.86404    91.12394   181.40259     3.86404
    17.10000    88.87606   178.59739     3.86404    91.12394   181.40261     3.86404
    17.20000    88.87605   178.59738     3.86404    91.12395   181.40262     3.86404
    17.30000    88.87605   178.59737     3.86404    91.12395   181.40263     3.86404
    17.40000    88.87605   178.59736     3.86404    91.12395   181.40264     3.86404
    17.50000    88.87605   178.59735     3.86404    91.12395   181.40265     3.86404
    17.60000    88.87604   178.59733     3.86404    91.12396   181.40267     3.86404
    17.70000    88.87604   178.59732     3.86403    91.12396   181.40268     3.86403
    17.80000    88.87604   178.59731     3.86403    91.12396   181.40269     3.86403
    17.90000    88.87604   178.59730     3.86403    91.12396   181.40270     3.86403
    18.00000    88.87603   178.59728     3.86403    91.12397   181.40272     3.86403
    18.10000    88.87603   178.59727     3.86403    91.12397   181.40273     3.86403
    18.20000    88.87603   178.59726     3.86403    91.12397   181.40274     3.86403
    18.30000    88.87603   178.59725     3.86402    91.12397   181.40275     3.86402
    18.40000    88.87602   178.59723     3.86402    91.12398   181.40277     3.86402
    18.50000    88.87602   178.59722     3.86402    91.12398   181.40278     3.86402
    18.60000    88.87602   178.59721     3.86402    91.12398   181.40279     3.86402
    18.70000    88.87602   178.59720     3.86402    91.12398   181.40280     3.86402
    18.80000    88.87601   178.59718     3.86402    91.12399   181.40282     3.86402
    18.90000    88.87601   178.59717     3.86401    91.12399   181.40283     3.86401
    19.00000    88.87601   178.59716     3.86401    91.12399   181.40284     3.86401
    19.10000    88.87601   178.59715     3.86401    91.12399   181.40285     3.86401
    19.20000    88.87600   178.59713     3.86401    91.12400   181.40287     3.86401
    19.30000    88.87600   178.59712     3.86401    91.12400   181.40288     3.86401
    19.40000    88.87600   178.59711     3.86400    91.12400   181.40289     3.86400
    19.50000    88.87600   178.59710     3.86400    91.12400   181.40290     3.86400
    19.60000    88.87599   178.59708     3.86400    91.12401   181.40292     3.86400
    19.70000    88.87599   178.59707     3.86400    91.12401   181.40293     3.86400
    19.80000    88.87599   178.59706     3.86400    91.12401   181.40294     3.86400
    19.90000    88.87599   178.59705     3.86400    91.12401   181.40295     3.86400
    20.00000    88.87598   178.59703     3.86399    91.12402   181.40297     3.86399
    20.10000    88.87598   178.59702     3.86399    91.12402   181.40298     3.86399
    20.20000    88.87598   178.59701     3.86399    91.12402   181.40299     3.86399
    20.30000    88.87598   178.59700     3.86399    91.12402   181.40300     3.86399
    20.40000    88.87597   178.59698     3.86398    91.12403   181.40302     3.86398
    20.50000    88.87597   178.59697     3.86398    91.12403   181.40303     3.86398
    20.60000    88.87597   178.59696     3.86398    91.12403   181.40304     3.86398
    20.70000    88.87596   178.59695     3.86398    91.12404   181.40305     3.86398
    20.80000    88.87596   178.59693     3.86398    91.12404   181.40307     3.86398
    20.90000    88.87596   178.59692     3.86397    91.12404   181.40308     3.86397
    21.00000    88.87596   178.59691     3.86397    91.12404   181.40309     3.86397
    21.10000    88.87595   178.59690     3.86397    91.12405   181.40310     3.86397
    21.20000    88.87595   178.59688     3.86397    91.12405   181.40312     3.86397
    21.30000    88.87595   178.59687     3.86397    91.12405   181.40313     3.86397
    21.40000    88.87595   178.59686     3.86396    91.12405   181.40314     3.86396
    21.50000    88.87594   178.59684     3.86396    91.12406   181.40316     3.86396
    21.60000    88.87594   178.59683     3.86396    91.12406   181.40317     3.86396
    21.70000    88.87594   178.59682     3.86396    91.12406   181.40318     3.86396
    21.80000    88.87593   178.59681     3.86395    91.12407   181.40319     3.86395
    21.90000    88.87593   178.59679     3.86395    91.12407   181.40321     3.86395
    22.00000    88.87593   178.59678     3.86395    91.12407   181.40322     3.86395
    22.10000    88.87593   178.59677     3.86395    91.12407   181.40323     3.86395
    22.20000    88.87592   178.59676     3.86394    91.12408   181.40324     3.86394
    22.30000    88.87592   178.59674     3.86394    91.12408   181.40326     3.86394
    22.40000    88.87592   178.59673     3.86394    91.12408   181.40327     3.86394
    22.50000    88.87592   178.59672     3.86394    91.12408   181.40328     3.86394
    22.60000    88.87591   178.59670     3.86393    91.12409   181.40330     3.86393
    22.70000    88.87591   178.59669     3.86393    91.12409   181.40331     3.86393
    22.80000    88.87591   178.59668     3.86393    91.12409   181.40332     3.86393
    22.90000    88.87590   178.59667     3.86393    91.12410   181.40333     3.86393
    23.00000    88.87590   178.59665     3.86392    91.12410   181.40335     3.86392
    23.10000    88.87590   178.59664     3.86392    91.12410   181.40336     3.86392
    23.20000    88.87590   178.59663     3.86392    91.12410   181.40337     3.86392
    23.30000    88.87589   178.59662     3.86392    91.12411   181.40338     3.86392
    23.40000    88.87589   178.59660     3.86391    91.12411   181.40340     3.86391
    23.50000    88.87589   178.59659     3.86391    91.12411   181.40341     3.86391
    23.60000    88.87588   178.59658     3.86391    91.12412   181.40342     3.86391
    23.70000    88.87588   178.59656     3.86391    91.12412   181.40344     3.86391
    23.80000    88.87588   178.59655     3.86390    91.12412   181.40345     3.86390
    23.90000    88.87588   178.59654     3.86390    91.12412   181.40346     3.86390
    24.00000    88.87587   178.59653     3.86390    91.12413   181.40347     3.86390
    24.10000    88.87587   178.59651     3.86390    91.12413   181.40349     3.86390
    24.20000    88.87587   178.59650     3.86389    91.12413   181.40350     3.86389
    24.30000    88.87586   178.59649     3.86389    91.12414   181.40351     3.86389
    24.40000    88.87586   178.59647     3.86389    91.12414   181.40353     3.86389
    24.50000    88.87586   178.59646     3.86388    91.12414   181.40354     3.86388
    24.60000    88.87585   178.59645     3.86388    91.12415   181.40355     3.86388
    24.70000    88.87585   178.59644     3.86388    91.12415   181.40356     3.86388
    24.80000    88.87585   178.59642     3.86388    91.12415   181.40358     3.86388
    24.90000    88.87585   178.59641     3.86387    91.12415   181.40359     3.86387
    25.00000    88.87584   178.59640     3.86387    91.12416   181.40360     3.86387
    25.10000    88.87584   178.59638     3.86387    91.12416   181.40362     3.86387
    25.20000    88.87584   178.59637     3.86386    91.12416   181.40363     3.86386
    25.30000    88.87583   178.59636     3.86386    91.12417   181.40364     3.86386
    25.40000    88.87583   178.59634     3.86386    91.12417   181.40366     3.86386
    25.50000    88.87583   178.59633     3.86385    91.12417   181.40367     3.86385
    25.60000    88.87582   178.59632     3.86385    91.12418   181.40368     3.86385
    25.70000    88.87582   178.59631     3.86385    91.12418   181.40369     3.86385
    25.80000    88.87582   178.59629     3.86385    91.12418   181.40371     3.86385
    25.90000    88.87582   178.59628     3.86384    91.12418   181.40372     3.86384
    26.00000    88.87581   178.59627     3.86384    91.12419   181.40373     3.86384
    26.10000    88.87581   178.59625     3.86384    91.12419   181.40375     3.86384
    26.20000    88.87581   178.59624     3.86383    91.12419   181.40376     3.86383
    26.30000    88.87580   178.59623     3.86383    91.12420   181.40377     3.86383
    26.40000    88.87580   178.59621     3.86383    91.12420   181.40379     3.86383
    26.50000    88.87580   178.59620     3.86382    91.12420   181.40380     3.86382
    26.60000    88.87579   178.59619     3.86382    91.12421   181.40381     3.86382
    26.70000    88.87579   178.59618     3.86382    91.12421   181.40382     3.86382
    26.80000    88.87579   178.59616     3.86381    91.12421   181.40384     3.86381
    26.90000    88.87578   178.59615     3.86381    91.12422   181.40385     3.86381
    27.00000    88.87578   178.59614     3.86381    91.12422   181.40386     3.86381
    27.10000    88.87578   178.59612     3.86380    91.12422   181.40388     3.86380
    27.20000    88.87578   178.59611     3.86380    91.12422   181.40389     3.86380
    27.30000    88.87577   178.59610     3.86380    91.12423   181.40390     3.86380
    27.40000    88.87577   178.59608     3.86379    91.12423   181.40392     3.86379
    27.50000    88.87577   178.59607     3.86379    91.12423   181.40393     3.86379
    27.60000    88.87576   178.59606     3.86379    91.12424   181.40394     3.86379
    27.70000    88.87576   178.59604     3.86378    91.12424   181.40396     3.86378
    27.80000    88.87576   178.59603     3.86378    91.12424   181.40397     3.86378
    27.90000    88.87575   178.59602     3.86378    91.12425   181.40398     3.86378
    28.00000    88.87575   178.59600     3.86377    91.12425   181.40400     3.86377
    28.10000    88.87575   178.59599     3.86377    91.12425   181.40401     3.86377
    28.20000    88.87574   178.59598     3.86377    91.12426   181.40402     3.86377
    28.30000    88.87574   178.59596     3.86376    91.12426   181.40404     3.86376
    28.40000    88.87574   178.59595     3.86376    91.12426   181.40405     3.86376
    28.50000    88.87573   178.59594     3.86375    91.12427   181.40406     3.86375
    28.60000    88.87573   178.59593     3.86375    91.12427   181.40407     3.86375
    28.70000    88.87573   178.59591     3.86375    91.12427   181.40409     3.86375
    28.80000    88.87572   178.59590     3.86374    91.12428   181.40410     3.86374
    28.90000    88.87572   178.59589     3.86374    91.12428   181.40411     3.86374
    29.00000    88.87572   178.59587     3.86374    91.12428   181.40413     3.86374
    29.10000    88.87571   178.59586     3.86373    91.12429   181.40414     3.86373
    29.20000    88.87571   178.59585     3.86373    91.12429   181.40415     3.86373
    29.30000    88.87571   178.59583     3.86373    91.12429   181.40417     3.86373
    29.40000    88.87570   178.59582     3.86372    91.12430   181.40418     3.86372
    29.50000    88.87570   178.59581     3.86372    91.12430   181.40419     3.86372
    29.60000    88.87570   178.59579     3.86371    91.12430   181.40421     3.86371
    29.70000    88.87569   178.59578     3.86371    91.12431   181.40422     3.86371
    29.80000    88.87569   178.59577     3.86371    91.12431   181.40423     3.86371
    29.90000    88.87569   178.59575     3.86370    91.12431   181.40425     3.86370
    30.00000    88.87568   178.59574     3.86370    91.12432   181.40426     3.86370
    30.10000    88.87568   178.59573     3.86369    91.12432   181.40427     3.86369
    30.20000    88.87568   178.59571     3.86369    91.12432   181.40429     3.86369
    30.30000    88.87567   178.59570     3.86369    91.12433   181.40430     3.86369
    30.40000    88.87567   178.59569     3.86368    91.12433   181.40431     3.86368
    30.50000    88.87567   178.59567     3.86368    91.12433   181.40433     3.86368
    30.60000    88.87566   178.59566     3.86368    91.12434   181.40434     3.86368
    30.70000    88.87566   178.59565     3.86367    91.12434   181.40435     3.86367
    30.80000    88.87566   178.59563     3.86367    91.12434   181.40437     3.86367
    30.90000    88.87565   178.59562     3.86366    91.12435   181.40438     3.86366
    31.00000    88.87565   178.59561     3.86366    91.12435   181.40439     3.86366
    31.10000    88.87565   178.59559     3.86365    91.12435   181.40441     3.86365
    31.20000    88.87564   178.59558     3.86365    91.12436   181.40442     3.86365
    31.30000    88.87564   178.59556     3.86365    91.12436   181.40444     3.86365
    31.40000    88.87563   178.59555     3.86364    91.12437   181.40445     3.86364
    31.50000    88.87563   178.59554     3.86364    91.12437   181.40446     3.86364
    31.60000    88.87563   178.59552     3.86363    91.12437   181.40448     3.86363
    31.70000    88.87562   178.59551     3.86363    91.12438   181.40449     3.86363
    31.80000    88.87562   178.59550     3.86363    91.12438   181.40450     3.86363
    31.90000    88.87562   178.59548     3.86362    91.12438   181.40452     3.86362
    32.00000    88.87561   178.59547     3.86362    91.12439   181.40453     3.86362
    32.10000    88.87561   178.59546     3.86361    91.12439   181.40454     3.86361
    32.20000    88.87561   178.59544     3.86361    91.12439   181.40456     3.86361
    32.30000    88.87560   178.59543     3.86360    91.12440   181.40457     3.86360
    32.40000    88.87560   178.59542     3.86360    91.12440   181.40458     3.86360
    32.50000    88.87560   178.59540     3.86360    91.12440   181.40460     3.86360
    32.60000    88.87559   178.59539     3.86359    91.12441   181.40461     3.86359
    32.70000    88.87559   178.59538     3.86359    91.12441   181.40462     3.86359
    32.80000    88.87558   178.59536     3.86358    91.12442   181.40464     3.86358
    32.90000    88.87558   178.59535     3.86358    91.12442   181.40465     3.86358
    33.00000    88.87558   178.59533     3.86357    91.12442   181.40467     3.86357
    33.10000    88.87557   178.59532     3.86357    91.12443   181.40468     3.86357
    33.20000    88.87557   178.59531     3.86356    91.12443   181.40469     3.86356
    33.30000    88.87557   178.59529     3.86356    91.12443   181.40471     3.86356
    33.40000    88.87556   178.59528     3.86356    91.12444   181.40472     3.86356
    33.50000    88.87556   178.59527     3.86355    91.12444   181.40473     3.86355
    33.60000    88.87556   178.59525     3.86355    91.12444   181.40475     3.86355
    33.70000    88.87555   178.59524     3.86354    91.12445   181.40476     3.86354
    33.80000    88.87555   178.59523     3.86354    91.12445   181.40477     3.86354
    33.90000    88.87554   178.59521     3.86353    91.12446   181.40479     3.86353
    34.00000    88.87554   178.59520     3.86353    91.12446   181.40480     3.86353
    34.10000    88.87554   178.59518     3.86352    91.12446   181.40482     3.86352
    34.20000    88.87553   178.59517     3.86352    91.12447   181.40483     3.86352
    34.30000    88.87553   178.59516     3.86351    91.12447   181.40484     3.86351
    34.40000    88.87553   178.59514     3.86351    91.12447   181.40486     3.86351
    34.50000    88.87552   178.59513     3.86350    91.12448   181.40487     3.86350
    34.60000    88.87552   178.59512     3.86350    91.12448   181.40488     3.86350
    34.70000    88.87551   178.59510     3.86350    91.12449   181.40490     3.86350
    34.80000    88.87551   178.59509     3.86349    91.12449   181.40491     3.86349
    34.90000    88.87551   178.59508     3.86349    91.12449   181.40492     3.86349
    35.00000    88.87550   178.59506     3.86348    91.12450   181.40494     3.86348
    35.10000    88.87550   178.59505     3.86348    91.12450   181.40495     3.86348
    35.20000    88.87550   178.59503     3.86347    91.12450   181.40497     3.86347
    35.30000    88.87549   178.59502     3.86347    91.12451   181.40498     3.86347
    35.40000    88.87549   178.59501     3.86346    91.12451   181.40499     3.86346
    35.50000    88.87548   178.59499     3.86346    91.12452   181.40501     3.86346
    35.60000    88.87548   178.59498     3.86345    91.12452   181.40502     3.86345
    35.70000    88.87548   178.59496     3.86345    91.12452   181.40504     3.86345
    35.80000    88.87547   178.59495     3.86344    91.12453   181.40505     3.86344
    35.90000    88.87547   178.59494     3.86344    91.12453   181.40506     3.86344
    36.00000    88.87546   178.59492     3.86343    91.12454   181.40508     3.86343
    36.10000    88.87546   178.59491     3.86343    91.12454   181.40509     3.86343
    36.20000    88.87546   178.59490     3.86342    91.12454   181.40510     3.86342
    36.30000    88.87545   178.59488     3.86342    91.12455   181.40512     3.86342
    36.40000    88.87545   178.59487     3.86341    91.12455   181.40513     3.86341
    36.50000    88.87545   178.59485     3.86341    91.12455   181.40515     3.86341
    36.60000    88.87544   178.59484     3.86340    91.12456   181.40516     3.86340
    36.70000    88.87544   178.59483     3.86340    91.12456   181.40517     3.86340
    36.80000    88.87543   178.59481     3.86339    91.12457   181.40519     3.86339
    36.90000    88.87543   178.59480     3.86339    91.12457   181.40520     3.86339
    37.00000    88.87543   178.59478     3.86338    91.12457   181.40522     3.86338
    37.10000    88.87542   178.59477     3.86338    91.12458   181.40523     3.86338
    37.20000    88.87542   178.59476     3.86337    91.12458   181.40524     3.86337
    37.30000    88.87541   178.59474     3.86337    91.12459   181.40526     3.86337
    37.40000    88.87541   178.59473     3.86336    91.12459   181.40527     3.86336
    37.50000    88.87541   178.59471     3.86335    91.12459   181.40529     3.86335
    37.60000    88.87540   178.59470     3.86335    91.12460   181.40530     3.86335
    37.70000    88.87540   178.59469     3.86334    91.12460   181.40531     3.86334
    37.80000    88.87539   178.59467     3.86334    91.12461   181.40533     3.86334
    37.90000    88.87539   178.59466     3.86333    91.12461   181.40534     3.86333
    38.00000    88.87539   178.59464     3.86333    91.12461   181.40536     3.86333
    38.10000    88.87538   178.59463     3.86332    91.12462   181.40537     3.86332
    38.20000    88.87538   178.59462     3.86332    91.12462   181.40538     3.86332
    38.30000    88.87537   178.59460     3.86331    91.12463   181.40540     3.86331
    38.40000    88.87537   178.59459     3.86331    91.12463   181.40541     3.86331
    38.50000    88.87537   178.59457     3.86330    91.12463   181.40543     3.86330
    38.60000    88.87536   178.59456     3.86330    91.12464   181.40544     3.86330
    38.70000    88.87536   178.59455     3.86329    91.12464   181.40545     3.86329
    38.80000    88.87535   178.59453     3.86328    91.12465   181.40547     3.86328
    38.90000    88.87535   178.59452     3.86328    91.12465   181.40548     3.86328
    39.00000    88.87534   178.59450     3.86327    91.12466   181.40550     3.86327
    39.10000    88.87534   178.59449     3.86327    91.12466   181.40551     3.86327
    39.20000    88.87534   178.59448     3.86326    91.12466   181.40552     3.86326
    39.30000    88.87533   178.59446     3.86326    91.12467   181.40554     3.86326
    39.40000    88.87533   178.59445     3.86325    91.12467   181.40555     3.86325
    39.50000    88.87532   178.59443     3.86324    91.12468   181.40557     3.86324
    39.60000    88.87532   178.59442     3.86324    91.12468   181.40558     3.86324
    39.70000    88.87532   178.59441     3.86323    91.12468   181.40559     3.86323
    39.80000    88.87531   178.59439     3.86323    91.12469   181.40561     3.86323
    39.90000    88.87531   178.59438     3.86322    91.12469   181.40562     3.86322
    40.00000    88.87530   178.59436     3.86322    91.12470   181.40564     3.86322
