 # applied field (T), theta (degree), phi (degree), abs for RE 3-4
     0.00000   180.00000   180.00000     4.43937   180.00000   180.00000     4.43937
     0.10000   179.82160   230.73945     4.43937   179.82160   219.26055     4.43937
     0.20000   179.64321   230.73941     4.43936   179.64321   219.26059     4.43936
     0.30000   179.46480   230.73936     4.43936   179.46480   219.26064     4.43936
     0.40000   179.28639   230.73929     4.43935   179.28639   219.26071     4.43935
     0.50000   179.10797   230.73919     4.43933   179.10797   219.26081     4.43933
     0.60000   178.92953   230.73907     4.43932   178.92953   219.26093     4.43932
     0.70000   178.75109   230.73893     4.43930   178.75109   219.26107     4.43930
     0.80000   178.57262   230.73877     4.43928   178.57262   219.26123     4.43928
     0.90000   178.39413   230.73859     4.43926   178.39413   219.26141     4.43926
     1.00000   178.17095   230.73566     4.43923   178.17095   219.26434     4.43923
     1.10000   177.99241   230.73567     4.43920   177.99241   219.26433     4.43920
     1.20000   177.81383   230.73561     4.43917   177.81383   219.26439     4.43917
     1.30000   177.63523   230.73551     4.43914   177.63523   219.26449     4.43914
     1.40000   177.45659   230.73536     4.43910   177.45659   219.26464     4.43910
     1.50000   177.27792   230.73517     4.43907   177.27792   219.26483     4.43907
     1.60000   177.09920   230.73494     4.43903   177.09920   219.26506     4.43903
     1.70000   176.92045   230.73468     4.43898   176.92045   219.26532     4.43898
     1.80000   176.74165   230.73438     4.43894   176.74165   219.26562     4.43894
     1.90000   176.56280   230.73405     4.43889   176.56280   219.26595     4.43889
     2.00000   176.38391   230.73370     4.43884   176.38391   219.26630     4.43884
     2.10000   176.20496   230.73331     4.43878   176.20496   219.26669     4.43878
     2.20000   176.02596   230.73290     4.43873   176.02596   219.26710     4.43873
     2.30000   175.84690   230.73245     4.43867   175.84690   219.26755     4.43867
     2.40000   175.66778   230.73198     4.43861   175.66778   219.26802     4.43861
     2.50000   175.48860   230.73149     4.43854   175.48860   219.26851     4.43854
     2.60000   175.30936   230.73097     4.43848   175.30936   219.26903     4.43848
     2.70000   175.08517   230.72930     4.43839   175.08517   219.27070     4.43839
     2.80000   174.90578   230.72875     4.43832   174.90578   219.27125     4.43832
     2.90000   174.72630   230.72818     4.43825   174.72630   219.27182     4.43825
     3.00000   174.54676   230.72758     4.43817   174.54676   219.27242     4.43817
     3.10000   174.36713   230.72695     4.43809   174.36713   219.27305     4.43809
     3.20000   174.18742   230.72629     4.43801   174.18742   219.27371     4.43801
     3.30000   174.00764   230.72561     4.43792   174.00764   219.27439     4.43792
     3.40000   173.82776   230.72490     4.43784   173.82776   219.27510     4.43784
     3.50000   173.64780   230.72416     4.43775   173.64780   219.27584     4.43775
     3.60000   173.46774   230.72339     4.43765   173.46774   219.27661     4.43765
     3.70000   173.28760   230.72260     4.43756   173.28760   219.27740     4.43756
     3.80000   173.10736   230.72178     4.43746   173.10736   219.27822     4.43746
     3.90000   172.92701   230.72094     4.43736   172.92701   219.27906     4.43736
     4.00000   172.74657   230.72006     4.43726   172.74657   219.27994     4.43726
     4.10000   172.52085   230.71831     4.43713   172.52085   219.28169     4.43713
     4.20000   172.34017   230.71739     4.43702   172.34017   219.28261     4.43702
     4.30000   172.15939   230.71644     4.43691   172.15939   219.28356     4.43691
     4.40000   171.97849   230.71547     4.43680   171.97849   219.28453     4.43680
     4.50000   171.79748   230.71446     4.43669   171.79748   219.28554     4.43669
     4.60000   171.61635   230.71343     4.43657   171.61635   219.28657     4.43657
     4.70000   171.43510   230.71237     4.43645   171.43510   219.28763     4.43645
     4.80000   171.25373   230.71128     4.43633   171.25373   219.28872     4.43633
     4.90000   171.07224   230.71017     4.43620   171.07224   219.28983     4.43620
     5.00000   170.89062   230.70902     4.43608   170.89062   219.29098     4.43608
     5.10000   170.70887   230.70784     4.43595   170.70887   219.29216     4.43595
     5.20000   170.52700   230.70664     4.43581   170.52700   219.29336     4.43581
     5.30000   170.29944   230.70463     4.43565   170.29944   219.29537     4.43565
     5.40000   170.11726   230.70336     4.43551   170.11726   219.29664     4.43551
     5.50000   169.93493   230.70207     4.43537   169.93493   219.29793     4.43537
     5.60000   169.75247   230.70075     4.43523   169.75247   219.29925     4.43523
     5.70000   169.56986   230.69940     4.43508   169.56986   219.30060     4.43508
     5.80000   169.38710   230.69801     4.43494   169.38710   219.30199     4.43494
     5.90000   169.20419   230.69660     4.43479   169.20419   219.30340     4.43479
     6.00000   169.02113   230.69515     4.43464   169.02113   219.30485     4.43464
     6.10000   168.83792   230.69368     4.43448   168.83792   219.30632     4.43448
     6.20000   168.65455   230.69217     4.43433   168.65455   219.30783     4.43433
     6.30000   168.42510   230.68986     4.43413   168.42510   219.31014     4.43413
     6.40000   168.24137   230.68828     4.43397   168.24137   219.31172     4.43397
     6.50000   168.05748   230.68667     4.43381   168.05748   219.31333     4.43381
     6.60000   167.87342   230.68503     4.43364   167.87342   219.31497     4.43364
     6.70000   167.68918   230.68336     4.43347   167.68918   219.31664     4.43347
     6.80000   167.50478   230.68165     4.43330   167.50478   219.31835     4.43330
     6.90000   167.32020   230.67991     4.43313   167.32020   219.32009     4.43313
     7.00000   167.13544   230.67813     4.43295   167.13544   219.32187     4.43295
     7.10000   166.95051   230.67632     4.43278   166.95051   219.32368     4.43278
     7.20000   166.71908   230.67369     4.43256   166.71908   219.32631     4.43256
     7.30000   166.53374   230.67180     4.43237   166.53374   219.32820     4.43237
     7.40000   166.34820   230.66988     4.43219   166.34820   219.33012     4.43219
     7.50000   166.16248   230.66793     4.43200   166.16248   219.33207     4.43200
     7.60000   165.97657   230.66593     4.43181   165.97657   219.33407     4.43181
     7.70000   165.79046   230.66390     4.43162   165.79046   219.33610     4.43162
     7.80000   165.60415   230.66184     4.43143   165.60415   219.33816     4.43143
     7.90000   165.37100   230.65892     4.43119   165.37100   219.34108     4.43119
     8.00000   165.18424   230.65678     4.43099   165.18424   219.34322     4.43099
     8.10000   164.99728   230.65459     4.43079   164.99728   219.34541     4.43079
     8.20000   164.81012   230.65237     4.43059   164.81012   219.34763     4.43059
     8.30000   164.62274   230.65010     4.43039   164.62274   219.34990     4.43039
     8.40000   164.43516   230.64780     4.43018   164.43516   219.35220     4.43018
     8.50000   164.24736   230.64546     4.42997   164.24736   219.35454     4.42997
     8.60000   164.01232   230.64223     4.42971   164.01232   219.35777     4.42971
     8.70000   163.82403   230.63981     4.42950   163.82403   219.36019     4.42950
     8.80000   163.63553   230.63734     4.42928   163.63553   219.36266     4.42928
     8.90000   163.44679   230.63483     4.42907   163.44679   219.36517     4.42907
     9.00000   163.25784   230.63227     4.42885   163.25784   219.36773     4.42885
     9.10000   163.06866   230.62968     4.42863   163.06866   219.37032     4.42863
     9.20000   162.83188   230.62616     4.42835   162.83188   219.37384     4.42835
     9.30000   162.64217   230.62347     4.42813   162.64217   219.37653     4.42813
     9.40000   162.45224   230.62074     4.42790   162.45224   219.37926     4.42790
     9.50000   162.26206   230.61797     4.42767   162.26206   219.38203     4.42767
     9.60000   162.07165   230.61515     4.42744   162.07165   219.38485     4.42744
     9.70000   161.83332   230.61137     4.42715   161.83332   219.38863     4.42715
     9.80000   161.64236   230.60845     4.42692   161.64236   219.39155     4.42692
     9.90000   161.45116   230.60549     4.42668   161.45116   219.39451     4.42668
    10.00000   161.25970   230.60248     4.42644   161.25970   219.39752     4.42644
    10.10000   161.06800   230.59943     4.42620   161.06800   219.40057     4.42620
    10.20000   160.82805   230.59536     4.42590   160.82805   219.40464     4.42590
    10.30000   160.63578   230.59221     4.42566   160.63578   219.40779     4.42566
    10.40000   160.44325   230.58900     4.42541   160.44325   219.41100     4.42541
    10.50000   160.25045   230.58575     4.42516   160.25045   219.41425     4.42516
    10.60000   160.05740   230.58245     4.42491   160.05740   219.41755     4.42491
    10.70000   159.81576   230.57809     4.42460   159.81576   219.42191     4.42460
    10.80000   159.62211   230.57468     4.42435   159.62211   219.42532     4.42435
    10.90000   159.42819   230.57123     4.42409   159.42819   219.42877     4.42409
    11.00000   159.23401   230.56772     4.42383   159.23401   219.43228     4.42383
    11.10000   158.99094   230.56311     4.42351   158.99094   219.43689     4.42351
    11.20000   158.79614   230.55949     4.42325   158.79614   219.44051     4.42325
    11.30000   158.60106   230.55582     4.42299   158.60106   219.44418     4.42299
    11.40000   158.40571   230.55209     4.42272   158.40571   219.44791     4.42272
    11.50000   158.21007   230.54831     4.42246   158.21007   219.45169     4.42246
    11.60000   157.96518   230.54338     4.42213   157.96518   219.45662     4.42213
    11.70000   157.76891   230.53949     4.42186   157.76891   219.46051     4.42186
    11.80000   157.57235   230.53554     4.42159   157.57235   219.46446     4.42159
    11.90000   157.37550   230.53154     4.42132   157.37550   219.46846     4.42132
    12.00000   157.12909   230.52633     4.42098   157.12909   219.47367     4.42098
    12.10000   156.93158   230.52221     4.42070   156.93158   219.47779     4.42070
    12.20000   156.73378   230.51803     4.42042   156.73378   219.48197     4.42042
    12.30000   156.48618   230.51261     4.42008   156.48618   219.48739     4.42008
    12.40000   156.28771   230.50830     4.41980   156.28771   219.49170     4.41980
    12.50000   156.08895   230.50394     4.41952   156.08895   219.49606     4.41952
    12.60000   155.88987   230.49952     4.41923   155.88987   219.50048     4.41923
    12.70000   155.64068   230.49381     4.41888   155.64068   219.50619     4.41888
    12.80000   155.44092   230.48926     4.41860   155.44092   219.51074     4.41860
    12.90000   155.24086   230.48466     4.41831   155.24086   219.51534     4.41831
    13.00000   154.99041   230.47872     4.41795   154.99041   219.52128     4.41795
    13.10000   154.78965   230.47398     4.41766   154.78965   219.52602     4.41766
    13.20000   154.58857   230.46918     4.41737   154.58857   219.53082     4.41737
    13.30000   154.33686   230.46301     4.41701   154.33686   219.53699     4.41701
    13.40000   154.13508   230.45807     4.41671   154.13508   219.54193     4.41671
    13.50000   153.93297   230.45308     4.41642   153.93297   219.54692     4.41642
    13.60000   153.67997   230.44667     4.41605   153.67997   219.55333     4.41605
    13.70000   153.47714   230.44153     4.41575   153.47714   219.55847     4.41575
    13.80000   153.27399   230.43634     4.41545   153.27399   219.56366     4.41545
    13.90000   153.01968   230.42968     4.41508   153.01968   219.57032     4.41508
    14.00000   152.81579   230.42435     4.41478   152.81579   219.57565     4.41478
    14.10000   152.61158   230.41895     4.41448   152.61158   219.58105     4.41448
    14.20000   152.35594   230.41204     4.41410   152.35594   219.58796     4.41410
    14.30000   152.15098   230.40650     4.41379   152.15098   219.59350     4.41379
    14.40000   151.94569   230.40089     4.41349   151.94569   219.59911     4.41349
    14.50000   151.68870   230.39373     4.41311   151.68870   219.60627     4.41311
    14.60000   151.48265   230.38798     4.41280   151.48265   219.61202     4.41280
    14.70000   151.27626   230.38216     4.41249   151.27626   219.61784     4.41249
    14.80000   151.01791   230.37474     4.41211   151.01791   219.62526     4.41211
    14.90000   150.81076   230.36877     4.41179   150.81076   219.63123     4.41179
    15.00000   150.60326   230.36274     4.41148   150.60326   219.63726     4.41148
    15.10000   150.34352   230.35505     4.41109   150.34352   219.64495     4.41109
    15.20000   150.13525   230.34887     4.41078   150.13525   219.65113     4.41078
    15.30000   149.87454   230.34100     4.41039   149.87454   219.65900     4.41039
    15.40000   149.66549   230.33466     4.41007   149.66549   219.66534     4.41007
    15.50000   149.45609   230.32826     4.40975   149.45609   219.67174     4.40975
    15.60000   149.19396   230.32012     4.40936   149.19396   219.67988     4.40936
    15.70000   148.98377   230.31356     4.40904   148.98377   219.68644     4.40904
    15.80000   148.72065   230.30523     4.40865   148.72065   219.69477     4.40865
    15.90000   148.50967   230.29851     4.40832   148.50967   219.70149     4.40832
    16.00000   148.29832   230.29173     4.40800   148.29832   219.70827     4.40800
    16.10000   148.03377   230.28312     4.40760   148.03377   219.71688     4.40760
    16.20000   147.82162   230.27618     4.40728   147.82162   219.72382     4.40728
    16.30000   147.55606   230.26738     4.40688   147.55606   219.73262     4.40688
    16.40000   147.34310   230.26029     4.40656   147.34310   219.73971     4.40656
    16.50000   147.07652   230.25129     4.40615   147.07652   219.74871     4.40615
    16.60000   146.86275   230.24404     4.40583   146.86275   219.75596     4.40583
    16.70000   146.59516   230.23485     4.40542   146.59516   219.76515     4.40542
    16.80000   146.38056   230.22743     4.40510   146.38056   219.77257     4.40510
    16.90000   146.16560   230.21995     4.40477   146.16560   219.78005     4.40477
    17.00000   145.89652   230.21047     4.40436   145.89652   219.78953     4.40436
    17.10000   145.68073   230.20283     4.40403   145.68073   219.79717     4.40403
    17.20000   145.41061   230.19315     4.40363   145.41061   219.80685     4.40363
    17.30000   145.19399   230.18535     4.40329   145.19399   219.81465     4.40329
    17.40000   144.92283   230.17548     4.40289   144.92283   219.82452     4.40289
    17.50000   144.70537   230.16751     4.40255   144.70537   219.83249     4.40255
    17.60000   144.43317   230.15744     4.40214   144.43317   219.84256     4.40214
    17.70000   144.21486   230.14931     4.40181   144.21486   219.85069     4.40181
    17.80000   143.94161   230.13904     4.40140   143.94161   219.86096     4.40140
    17.90000   143.72246   230.13075     4.40107   143.72246   219.86925     4.40107
    18.00000   143.44814   230.12028     4.40065   143.44814   219.87972     4.40065
    18.10000   143.22814   230.11183     4.40032   143.22814   219.88817     4.40032
    18.20000   142.95276   230.10116     4.39991   142.95276   219.89884     4.39991
    18.30000   142.73190   230.09255     4.39957   142.73190   219.90745     4.39957
    18.40000   142.45545   230.08168     4.39916   142.45545   219.91832     4.39916
    18.50000   142.23373   230.07290     4.39882   142.23373   219.92710     4.39882
    18.60000   141.95620   230.06184     4.39840   141.95620   219.93816     4.39840
    18.70000   141.73362   230.05290     4.39807   141.73362   219.94710     4.39807
    18.80000   141.45502   230.04164     4.39765   141.45502   219.95836     4.39765
    18.90000   141.23156   230.03255     4.39731   141.23156   219.96745     4.39731
    19.00000   140.95187   230.02109     4.39689   140.95187   219.97891     4.39689
    19.10000   140.72755   230.01183     4.39656   140.72755   219.98817     4.39656
    19.20000   140.44677   230.00018     4.39614   140.44677   219.99982     4.39614
    19.30000   140.22157   229.99076     4.39580   140.22157   220.00924     4.39580
    19.40000   139.93969   229.97891     4.39538   139.93969   220.02109     4.39538
    19.50000   139.71361   229.96934     4.39504   139.71361   220.03066     4.39504
    19.60000   139.43063   229.95730     4.39462   139.43063   220.04270     4.39462
    19.70000   139.20366   229.94757     4.39428   139.20366   220.05243     4.39428
    19.80000   138.91958   229.93534     4.39386   138.91958   220.06466     4.39386
    19.90000   138.69172   229.92545     4.39352   138.69172   220.07455     4.39352
    20.00000   138.40653   229.91303     4.39310   138.40653   220.08697     4.39310
    20.10000   138.17778   229.90300     4.39276   138.17778   220.09700     4.39276
    20.20000   137.89147   229.89039     4.39234   137.89147   220.10961     4.39234
    20.30000   137.60453   229.87768     4.39191   137.60453   220.12232     4.39191
    20.40000   137.37439   229.86741     4.39157   137.37439   220.13259     4.39157
    20.50000   137.08633   229.85451     4.39115   137.08633   220.14549     4.39115
    20.60000   136.85528   229.84410     4.39081   136.85528   220.15590     4.39081
    20.70000   136.56609   229.83102     4.39038   136.56609   220.16898     4.39038
    20.80000   136.33413   229.82046     4.39004   136.33413   220.17954     4.39004
    20.90000   136.04381   229.80720     4.38962   136.04381   220.19280     4.38962
    21.00000   135.81094   229.79650     4.38927   135.81094   220.20350     4.38927
    21.10000   135.51947   229.78307     4.38885   135.51947   220.21693     4.38885
    21.20000   135.28568   229.77223     4.38850   135.28568   220.22777     4.38850
    21.30000   134.99307   229.75863     4.38808   134.99307   220.24137     4.38808
    21.40000   134.69982   229.74494     4.38766   134.69982   220.25506     4.38766
    21.50000   134.46459   229.73388     4.38731   134.46459   220.26612     4.38731
    21.60000   134.17018   229.72003     4.38689   134.17018   220.27997     4.38689
    21.70000   133.93403   229.70884     4.38654   133.93403   220.29116     4.38654
    21.80000   133.63846   229.69482     4.38612   133.63846   220.30518     4.38612
    21.90000   133.40137   229.68351     4.38577   133.40137   220.31649     4.38577
    22.00000   133.10463   229.66933     4.38534   133.10463   220.33067     4.38534
    22.10000   132.80724   229.65508     4.38492   132.80724   220.34492     4.38492
    22.20000   132.56868   229.64357     4.38457   132.56868   220.35643     4.38457
    22.30000   132.27011   229.62917     4.38414   132.27011   220.37083     4.38414
    22.40000   132.03061   229.61754     4.38380   132.03061   220.38246     4.38380
    22.50000   131.73085   229.60299     4.38337   131.73085   220.39701     4.38337
    22.60000   131.49039   229.59125     4.38302   131.49039   220.40875     4.38302
    22.70000   131.18944   229.57657     4.38259   131.18944   220.42343     4.38259
    22.80000   130.94803   229.56472     4.38224   130.94803   220.43528     4.38224
    22.90000   130.64587   229.54990     4.38182   130.64587   220.45010     4.38182
    23.00000   130.34304   229.53502     4.38139   130.34304   220.46498     4.38139
    23.10000   130.10012   229.52301     4.38104   130.10012   220.47699     4.38104
    23.20000   129.79608   229.50800     4.38061   129.79608   220.49200     4.38061
    23.30000   129.55218   229.49589     4.38026   129.55218   220.50411     4.38026
    23.40000   129.24692   229.48077     4.37983   129.24692   220.51923     4.37983
    23.50000   128.94097   229.46558     4.37940   128.94097   220.53442     4.37940
    23.60000   128.69555   229.45334     4.37905   128.69555   220.54666     4.37905
    23.70000   128.38837   229.43804     4.37862   128.38837   220.56196     4.37862
    23.80000   128.14195   229.42572     4.37827   128.14195   220.57428     4.37827
    23.90000   127.83352   229.41033     4.37784   127.83352   220.58967     4.37784
    24.00000   127.58610   229.39793     4.37749   127.58610   220.60207     4.37749
    24.10000   127.27642   229.38245     4.37705   127.27642   220.61755     4.37705
    24.20000   126.96605   229.36692     4.37662   126.96605   220.63308     4.37662
    24.30000   126.71706   229.35441     4.37627   126.71706   220.64559     4.37627
    24.40000   126.40541   229.33881     4.37584   126.40541   220.66119     4.37584
    24.50000   126.15540   229.32624     4.37548   126.15540   220.67376     4.37548
    24.60000   125.84248   229.31057     4.37505   125.84248   220.68943     4.37505
    24.70000   125.52884   229.29486     4.37462   125.52884   220.70514     4.37462
    24.80000   125.27724   229.28221     4.37427   125.27724   220.71779     4.37427
    24.90000   124.96231   229.26645     4.37383   124.96231   220.73355     4.37383
    25.00000   124.70966   229.25376     4.37348   124.70966   220.74624     4.37348
    25.10000   124.39343   229.23794     4.37304   124.39343   220.76206     4.37304
    25.20000   124.07647   229.22211     4.37261   124.07647   220.77789     4.37261
    25.30000   123.82220   229.20937     4.37225   123.82220   220.79063     4.37225
    25.40000   123.50393   229.19351     4.37182   123.50393   220.80649     4.37182
    25.50000   123.18491   229.17763     4.37139   123.18491   220.82237     4.37139
    25.60000   122.92899   229.16486     4.37103   122.92899   220.83514     4.37103
    25.70000   122.60865   229.14896     4.37059   122.60865   220.85104     4.37059
    25.80000   122.28756   229.13306     4.37016   122.28756   220.86694     4.37016
    25.90000   122.02997   229.12028     4.36980   122.02997   220.87972     4.36980
    26.00000   121.70754   229.10438     4.36937   121.70754   220.89562     4.36937
    26.10000   121.38435   229.08848     4.36893   121.38435   220.91152     4.36893
    26.20000   121.12508   229.07571     4.36858   121.12508   220.92429     4.36858
    26.30000   120.80053   229.05983     4.36814   120.80053   220.94017     4.36814
    26.40000   120.47522   229.04396     4.36771   120.47522   220.95604     4.36771
    26.50000   120.14915   229.02811     4.36727   120.14915   220.97189     4.36727
    26.60000   119.88756   229.01538     4.36691   119.88756   220.98462     4.36691
    26.70000   119.56010   228.99958     4.36648   119.56010   221.00042     4.36648
    26.80000   119.23188   228.98379     4.36604   119.23188   221.01621     4.36604
    26.90000   118.90288   228.96804     4.36561   118.90288   221.03196     4.36561
    27.00000   118.63895   228.95540     4.36525   118.63895   221.04460     4.36525
    27.10000   118.30856   228.93972     4.36482   118.30856   221.06028     4.36482
    27.20000   117.97738   228.92407     4.36439   117.97738   221.07593     4.36439
    27.30000   117.64543   228.90847     4.36395   117.64543   221.09153     4.36395
    27.40000   117.31269   228.89292     4.36352   117.31269   221.10708     4.36352
    27.50000   116.97917   228.87742     4.36309   116.97917   221.12258     4.36309
    27.60000   116.71161   228.86500     4.36274   116.71161   221.13500     4.36274
    27.70000   116.37667   228.84961     4.36230   116.37667   221.15039     4.36230
    27.80000   116.04094   228.83428     4.36187   116.04094   221.16572     4.36187
    27.90000   115.70443   228.81902     4.36144   115.70443   221.18098     4.36144
    28.00000   115.36712   228.80384     4.36102   115.36712   221.19616     4.36102
    28.10000   115.02901   228.78872     4.36059   115.02901   221.21128     4.36059
    28.20000   114.69012   228.77369     4.36016   114.69012   221.22631     4.36016
    28.30000   114.35043   228.75875     4.35974   114.35043   221.24125     4.35974
    28.40000   113.94193   228.74099     4.35924   113.94193   221.25901     4.35924
    28.50000   113.60049   228.72624     4.35881   113.60049   221.27376     4.35881
    28.60000   113.25826   228.71159     4.35839   113.25826   221.28841     4.35839
    28.70000   112.91524   228.69705     4.35797   112.91524   221.30295     4.35797
    28.80000   112.57143   228.68261     4.35756   112.57143   221.31739     4.35756
    28.90000   112.15797   228.66549     4.35707   112.15797   221.33451     4.35707
    29.00000   111.81242   228.65130     4.35665   111.81242   221.34870     4.35665
    29.10000   111.46608   228.63723     4.35624   111.46608   221.36277     4.35624
    29.20000   111.04960   228.62057     4.35576   111.04960   221.37943     4.35576
    29.30000   110.70154   228.60678     4.35535   110.70154   221.39322     4.35535
    29.40000   110.28299   228.59047     4.35487   110.28299   221.40953     4.35487
    29.50000   109.93322   228.57698     4.35447   109.93322   221.42302     4.35447
    29.60000   109.51262   228.56105     4.35400   109.51262   221.43895     4.35400
    29.70000   109.09092   228.54533     4.35354   109.09092   221.45467     4.35354
    29.80000   108.66812   228.52983     4.35308   108.66812   221.47017     4.35308
    29.90000   108.24422   228.51456     4.35262   108.24422   221.48544     4.35262
    30.00000   107.81924   228.49952     4.35217   107.81924   221.50048     4.35217
    30.10000   107.39319   228.48474     4.35172   107.39319   221.51526     4.35172
    30.20000   106.96608   228.47020     4.35128   106.96608   221.52980     4.35128
    30.30000   106.53792   228.45592     4.35085   106.53792   221.54408     4.35085
    30.40000   106.03719   228.43965     4.35036   106.03719   221.56035     4.35036
    30.50000   105.60680   228.42596     4.34993   105.60680   221.57404     4.34993
    30.60000   105.10350   228.41040     4.34946   105.10350   221.58960     4.34946
    30.70000   104.59886   228.39523     4.34899   104.59886   221.60477     4.34899
    30.80000   104.09289   228.38046     4.34853   104.09289   221.61954     4.34853
    30.90000   103.58562   228.36612     4.34809   103.58562   221.63388     4.34809
    31.00000   103.00442   228.35028     4.34759   103.00442   221.64972     4.34759
    31.10000   102.42161   228.33503     4.34712   102.42161   221.66497     4.34712
    31.20000   101.83724   228.32036     4.34665   101.83724   221.67964     4.34665
    31.30000   101.25135   228.30630     4.34621   101.25135   221.69370     4.34621
    31.40000   100.59057   228.29126     4.34573   100.59057   221.70874     4.34573
    31.50000    99.85435   228.27551     4.34523    99.85435   221.72449     4.34523
    31.60000    99.11609   228.26079     4.34476    99.11609   221.73921     4.34476
    31.70000    98.37590   228.24711     4.34431    98.37590   221.75289     4.34431
    31.80000    97.48540   228.23215     4.34383    97.48540   221.76785     4.34383
    31.90000    96.44360   228.21674     4.34333    96.44360   221.78326     4.34333
    32.00000    95.32434   228.20267     4.34287    95.32434   221.79733     4.34287
    32.10000    93.75309   228.18740     4.34237    93.75309   221.81260     4.34237
    32.20000    90.75129   228.17285     4.34189    90.75129   221.82715     4.34189
    32.30000    90.00000   228.17202     4.34183    90.00000   221.82798     4.34183
    32.40000    90.00000   228.17179     4.34179    90.00000   221.82821     4.34179
    32.50000    90.00000   228.17155     4.34174    90.00000   221.82845     4.34174
    32.60000    90.00000   228.17131     4.34170    90.00000   221.82869     4.34170
    32.70000    90.00000   228.17108     4.34166    90.00000   221.82892     4.34166
    32.80000    90.00000   228.17084     4.34161    90.00000   221.82916     4.34161
    32.90000    90.00000   228.17061     4.34157    90.00000   221.82939     4.34157
    33.00000    90.00000   228.17038     4.34153    90.00000   221.82962     4.34153
    33.10000    90.00000   228.17014     4.34148    90.00000   221.82986     4.34148
    33.20000    90.00000   228.16991     4.34144    90.00000   221.83009     4.34144
    33.30000    90.00000   228.16967     4.34140    90.00000   221.83033     4.34140
    33.40000    90.00000   228.16944     4.34135    90.00000   221.83056     4.34135
    33.50000    90.00000   228.16920     4.34131    90.00000   221.83080     4.34131
    33.60000    90.00000   228.16897     4.34127    90.00000   221.83103     4.34127
    33.70000    90.00000   228.16874     4.34122    90.00000   221.83126     4.34122
    33.80000    90.00000   228.16850     4.34118    90.00000   221.83150     4.34118
    33.90000    90.00000   228.16827     4.34114    90.00000   221.83173     4.34114
    34.00000    90.00000   228.16804     4.34109    90.00000   221.83196     4.34109
    34.10000    90.00000   228.16780     4.34105    90.00000   221.83220     4.34105
    34.20000    90.00000   228.16757     4.34100    90.00000   221.83243     4.34100
    34.30000    90.00000   228.16734     4.34096    90.00000   221.83266     4.34096
    34.40000    90.00000   228.16710     4.34092    90.00000   221.83290     4.34092
    34.50000    90.00000   228.16687     4.34087    90.00000   221.83313     4.34087
    34.60000    90.00000   228.16664     4.34083    90.00000   221.83336     4.34083
    34.70000    90.00000   228.16640     4.34079    90.00000   221.83360     4.34079
    34.80000    90.00000   228.16617     4.34074    90.00000   221.83383     4.34074
    34.90000    90.00000   228.16594     4.34070    90.00000   221.83406     4.34070
    35.00000    90.00000   228.16571     4.34066    90.00000   221.83429     4.34066
    35.10000    90.00000   228.16547     4.34061    90.00000   221.83453     4.34061
    35.20000    90.00000   228.16524     4.34057    90.00000   221.83476     4.34057
    35.30000    90.00000   228.16501     4.34053    90.00000   221.83499     4.34053
    35.40000    90.00000   228.16478     4.34048    90.00000   221.83522     4.34048
    35.50000    90.00000   228.16455     4.34044    90.00000   221.83545     4.34044
    35.60000    90.00000   228.16431     4.34039    90.00000   221.83569     4.34039
    35.70000    90.00000   228.16408     4.34035    90.00000   221.83592     4.34035
    35.80000    90.00000   228.16385     4.34031    90.00000   221.83615     4.34031
    35.90000    90.00000   228.16362     4.34026    90.00000   221.83638     4.34026
    36.00000    90.00000   228.16339     4.34022    90.00000   221.83661     4.34022
    36.10000    90.00000   228.16316     4.34018    90.00000   221.83684     4.34018
    36.20000    90.00000   228.16293     4.34013    90.00000   221.83707     4.34013
    36.30000    90.00000   228.16270     4.34009    90.00000   221.83730     4.34009
    36.40000    90.00000   228.16247     4.34005    90.00000   221.83753     4.34005
    36.50000    90.00000   228.16223     4.34000    90.00000   221.83777     4.34000
    36.60000    90.00000   228.16200     4.33996    90.00000   221.83800     4.33996
    36.70000    90.00000   228.16177     4.33991    90.00000   221.83823     4.33991
    36.80000    90.00000   228.16154     4.33987    90.00000   221.83846     4.33987
    36.90000    90.00000   228.16131     4.33983    90.00000   221.83869     4.33983
    37.00000    90.00000   228.16108     4.33978    90.00000   221.83892     4.33978
    37.10000    90.00000   228.16085     4.33974    90.00000   221.83915     4.33974
    37.20000    90.00000   228.16062     4.33970    90.00000   221.83938     4.33970
    37.30000    90.00000   228.16039     4.33965    90.00000   221.83961     4.33965
    37.40000    90.00000   228.16016     4.33961    90.00000   221.83984     4.33961
    37.50000    90.00000   228.15993     4.33956    90.00000   221.84007     4.33956
    37.60000    90.00000   228.15971     4.33952    90.00000   221.84029     4.33952
    37.70000    90.00000   228.15948     4.33948    90.00000   221.84052     4.33948
    37.80000    90.00000   228.15925     4.33943    90.00000   221.84075     4.33943
    37.90000    90.00000   228.15902     4.33939    90.00000   221.84098     4.33939
    38.00000    90.00000   228.15879     4.33935    90.00000   221.84121     4.33935
    38.10000    90.00000   228.15856     4.33930    90.00000   221.84144     4.33930
    38.20000    90.00000   228.15833     4.33926    90.00000   221.84167     4.33926
    38.30000    90.00000   228.15810     4.33921    90.00000   221.84190     4.33921
    38.40000    90.00000   228.15787     4.33917    90.00000   221.84213     4.33917
    38.50000    90.00000   228.15765     4.33913    90.00000   221.84235     4.33913
    38.60000    90.00000   228.15742     4.33908    90.00000   221.84258     4.33908
    38.70000    90.00000   228.15719     4.33904    90.00000   221.84281     4.33904
    38.80000    90.00000   228.15696     4.33900    90.00000   221.84304     4.33900
    38.90000    90.00000   228.15673     4.33895    90.00000   221.84327     4.33895
    39.00000    90.00000   228.15651     4.33891    90.00000   221.84349     4.33891
    39.10000    90.00000   228.15628     4.33886    90.00000   221.84372     4.33886
    39.20000    90.00000   228.15605     4.33882    90.00000   221.84395     4.33882
    39.30000    90.00000   228.15582     4.33878    90.00000   221.84418     4.33878
    39.40000    90.00000   228.15560     4.33873    90.00000   221.84440     4.33873
    39.50000    90.00000   228.15537     4.33869    90.00000   221.84463     4.33869
    39.60000    90.00000   228.15514     4.33864    90.00000   221.84486     4.33864
    39.70000    90.00000   228.15491     4.33860    90.00000   221.84509     4.33860
    39.80000    90.00000   228.15469     4.33856    90.00000   221.84531     4.33856
    39.90000    90.00000   228.15446     4.33851    90.00000   221.84554     4.33851
    40.00000    90.00000   228.15423     4.33847    90.00000   221.84577     4.33847
