 # applied field (T), theta (degree), phi (degree), abs for RE 1-2
     0.00000     1.43049   315.00000     0.02703     1.43049   225.00000     0.02703
     0.10000     1.71112   272.62339     0.02694     2.02167   190.35802     0.02698
     0.20000     2.65163   248.82844     0.02685     3.09740   173.97927     0.02693
     0.30000     3.71451   239.47556     0.02677     4.18104   166.69963     0.02689
     0.40000     4.94392   233.89266     0.02669     5.42079   162.40505     0.02686
     0.50000     6.20840   230.70655     0.02662     6.67686   159.76309     0.02683
     0.60000     7.38168   229.05682     0.02657     7.82141   157.99326     0.02681
     0.70000     8.67094   227.73468     0.02651     9.08021   156.70436     0.02680
     0.80000     9.96391   226.88316     0.02647    10.33254   155.73695     0.02680
     0.90000    11.14746   226.50772     0.02643    11.46234   154.95057     0.02680
     1.00000    12.43779   226.17213     0.02640    12.69403   154.33090     0.02681
     1.10000    13.72314   226.01110     0.02637    13.91140   153.80999     0.02682
     1.20000    15.00158   225.98482     0.02636    15.11258   153.35797     0.02684
     1.30000    16.37790   225.98597     0.02635    16.40242   152.98379     0.02687
     1.40000    17.63672   226.16675     0.02635    17.56454   152.61216     0.02690
     1.50000    18.98822   226.36215     0.02635    18.80838   152.28926     0.02694
     1.60000    20.22237   226.68556     0.02636    19.92571   151.95263     0.02698
     1.70000    21.54445   227.02092     0.02638    21.11791   151.64654     0.02703
     1.80000    22.94881   227.38338     0.02641    22.37658   151.35969     0.02709
     1.90000    24.23516   227.83921     0.02644    23.50727   151.04564     0.02714
     2.00000    25.50391   228.34249     0.02648    24.60670   150.72327     0.02719
     2.10000    26.84832   228.87214     0.02652    25.76107   150.40328     0.02726
     2.20000    28.26239   229.43896     0.02658    26.96042   150.07609     0.02734
     2.30000    29.56191   230.06545     0.02664    28.03253   149.71520     0.02740
     2.40000    30.92754   230.72903     0.02670    29.14104   149.33776     0.02748
     2.50000    32.26871   231.43657     0.02677    30.20086   148.93063     0.02755
     2.60000    33.66884   232.18913     0.02686    31.28157   148.49229     0.02764
     2.70000    35.04198   232.98487     0.02695    32.30474   148.01421     0.02771
     2.80000    36.46749   233.83148     0.02705    33.33261   147.48849     0.02779
     2.90000    37.86420   234.71923     0.02715    34.29441   146.91124     0.02787
     3.00000    39.38089   235.67946     0.02728    35.29948   146.25512     0.02795
     3.10000    40.79186   236.66203     0.02739    36.17281   145.54136     0.02801
     3.20000    42.31293   237.72347     0.02754    37.06680   144.71722     0.02806
     3.30000    43.86570   238.84729     0.02770    37.91712   143.77552     0.02811
     3.40000    45.44543   240.03367     0.02787    38.71587   142.69432     0.02813
     3.50000    47.04732   241.28140     0.02806    39.45807   141.44848     0.02812
     3.60000    48.72612   242.61934     0.02827    40.17215   139.96766     0.02808
     3.70000    50.46932   244.04754     0.02852    40.85311   138.19804     0.02799
     3.80000    52.31817   245.59681     0.02881    41.53152   136.01953     0.02783
     3.90000    54.19852   247.22722     0.02912    42.20751   133.40250     0.02759
     4.00000    56.24060   249.03228     0.02950    43.00604   130.03797     0.02725
     4.10000    58.39847   250.99359     0.02994    44.05489   125.76381     0.02676
     4.20000    60.78578   253.21497     0.03049    45.74607   120.06215     0.02608
     4.30000    63.47827   255.78676     0.03116    48.94272   112.37851     0.02519
     4.40000    66.80219   259.02796     0.03205    56.34045   101.77289     0.02417
     4.50000    79.90107   265.50509     0.03050   100.09893    94.49491     0.03050
     4.60000    79.89842   265.69679     0.03048   100.10158    94.30321     0.03048
     4.70000    79.89587   265.88863     0.03047   100.10413    94.11137     0.03047
     4.80000    79.89343   266.08060     0.03046   100.10657    93.91940     0.03046
     4.90000    79.89110   266.27270     0.03045   100.10890    93.72730     0.03045
     5.00000    79.88888   266.46492     0.03044   100.11112    93.53508     0.03044
     5.10000    79.88678   266.65727     0.03043   100.11322    93.34273     0.03043
     5.20000    79.88478   266.84973     0.03041   100.11522    93.15027     0.03041
     5.30000    79.88289   267.04230     0.03040   100.11711    92.95770     0.03040
     5.40000    79.88111   267.23498     0.03039   100.11889    92.76502     0.03039
     5.50000    79.87945   267.42776     0.03038   100.12055    92.57224     0.03038
     5.60000    79.87790   267.62064     0.03037   100.12210    92.37936     0.03037
     5.70000    79.87646   267.81361     0.03037   100.12354    92.18639     0.03037
     5.80000    79.87513   268.00667     0.03036   100.12487    91.99333     0.03036
     5.90000    79.87391   268.19982     0.03035   100.12609    91.80018     0.03035
     6.00000    79.87281   268.39305     0.03034   100.12719    91.60695     0.03034
     6.10000    79.87181   268.58636     0.03033   100.12819    91.41364     0.03033
     6.20000    79.87093   268.77974     0.03033   100.12907    91.22026     0.03033
     6.30000    79.87017   268.97319     0.03032   100.12983    91.02681     0.03032
     6.40000    79.86951   269.16670     0.03031   100.13049    90.83330     0.03031
     6.50000    79.86897   269.36027     0.03030   100.13103    90.63973     0.03030
     6.60000    79.86855   269.55390     0.03030   100.13145    90.44610     0.03030
     6.70000    79.86823   269.74758     0.03029   100.13177    90.25242     0.03029
     6.80000    79.86803   269.94130     0.03029   100.13197    90.05870     0.03029
     6.90000    79.86795   270.13507     0.03028   100.13205    89.86493     0.03028
     7.00000    79.86797   270.32888     0.03028   100.13203    89.67112     0.03028
     7.10000    79.86811   270.52271     0.03027   100.13189    89.47729     0.03027
     7.20000    79.86837   270.71658     0.03027   100.13163    89.28342     0.03027
     7.30000    79.86874   270.91047     0.03026   100.13126    89.08953     0.03026
     7.40000    79.86922   271.10438     0.03026   100.13078    88.89562     0.03026
     7.50000    79.86982   271.29831     0.03026   100.13018    88.70169     0.03026
     7.60000    79.87052   271.49225     0.03026   100.12948    88.50775     0.03026
     7.70000    79.87135   271.68620     0.03025   100.12865    88.31380     0.03025
     7.80000    79.87229   271.88014     0.03025   100.12771    88.11986     0.03025
     7.90000    79.87334   272.07409     0.03025   100.12666    87.92591     0.03025
     8.00000    79.87450   272.26803     0.03025   100.12550    87.73197     0.03025
     8.10000    79.87578   272.46196     0.03025   100.12422    87.53804     0.03025
     8.20000    79.87717   272.65587     0.03025   100.12283    87.34413     0.03025
     8.30000    79.87868   272.84976     0.03025   100.12132    87.15024     0.03025
     8.40000    79.88030   273.04363     0.03025   100.11970    86.95637     0.03025
     8.50000    79.88203   273.23747     0.03025   100.11797    86.76253     0.03025
     8.60000    79.88387   273.43128     0.03025   100.11613    86.56872     0.03025
     8.70000    79.88583   273.62505     0.03025   100.11417    86.37495     0.03025
     8.80000    79.88790   273.81878     0.03025   100.11210    86.18122     0.03025
     8.90000    79.89009   274.01246     0.03025   100.10991    85.98754     0.03025
     9.00000    79.89238   274.20610     0.03025   100.10762    85.79390     0.03025
     9.10000    79.89479   274.39967     0.03025   100.10521    85.60033     0.03025
     9.20000    79.89732   274.59319     0.03026   100.10268    85.40681     0.03026
     9.30000    79.89995   274.78664     0.03026   100.10005    85.21336     0.03026
     9.40000    79.90270   274.98003     0.03026   100.09730    85.01997     0.03026
     9.50000    79.90555   275.17334     0.03027   100.09445    84.82666     0.03027
     9.60000    79.90852   275.36658     0.03027   100.09148    84.63342     0.03027
     9.70000    79.91160   275.55974     0.03027   100.08840    84.44026     0.03027
     9.80000    79.91480   275.75281     0.03028   100.08520    84.24719     0.03028
     9.90000    79.91810   275.94579     0.03028   100.08190    84.05421     0.03028
    10.00000    79.92151   276.13868     0.03029   100.07849    83.86132     0.03029
    10.10000    79.92503   276.33147     0.03029   100.07497    83.66853     0.03029
    10.20000    79.92867   276.52415     0.03030   100.07133    83.47585     0.03030
    10.30000    79.93241   276.71673     0.03031   100.06759    83.28327     0.03031
    10.40000    79.93626   276.90920     0.03031   100.06374    83.09080     0.03031
    10.50000    79.94022   277.10155     0.03032   100.05978    82.89845     0.03032
    10.60000    79.94429   277.29379     0.03033   100.05571    82.70621     0.03033
    10.70000    79.94847   277.48590     0.03034   100.05153    82.51410     0.03034
    10.80000    79.95276   277.67788     0.03034   100.04724    82.32212     0.03034
    10.90000    79.95715   277.86973     0.03035   100.04285    82.13027     0.03035
    11.00000    79.96165   278.06145     0.03036   100.03835    81.93855     0.03036
    11.10000    79.96626   278.25302     0.03037   100.03374    81.74698     0.03037
    11.20000    79.97098   278.44445     0.03038   100.02902    81.55555     0.03038
    11.30000    79.97580   278.63574     0.03039   100.02420    81.36426     0.03039
    11.40000    79.98072   278.82686     0.03040   100.01928    81.17314     0.03040
    11.50000    79.98576   279.01784     0.03041   100.01424    80.98216     0.03041
    11.60000    79.99089   279.20865     0.03042   100.00911    80.79135     0.03042
    11.70000    79.99613   279.39930     0.03043   100.00387    80.60070     0.03043
    11.80000    80.00148   279.58978     0.03044    99.99852    80.41022     0.03044
    11.90000    80.00693   279.78009     0.03045    99.99307    80.21991     0.03045
    12.00000    80.01248   279.97022     0.03046    99.98752    80.02978     0.03046
    12.10000    80.01814   280.16017     0.03048    99.98186    79.83983     0.03048
    12.20000    80.02389   280.34993     0.03049    99.97611    79.65007     0.03049
    12.30000    80.02975   280.53951     0.03050    99.97025    79.46049     0.03050
    12.40000    80.03571   280.72890     0.03051    99.96429    79.27110     0.03051
    12.50000    80.04177   280.91809     0.03053    99.95823    79.08191     0.03053
    12.60000    80.04793   281.10708     0.03054    99.95207    78.89292     0.03054
    12.70000    80.05419   281.29587     0.03055    99.94581    78.70413     0.03055
    12.80000    80.06055   281.48445     0.03057    99.93945    78.51555     0.03057
    12.90000    80.06701   281.67282     0.03058    99.93299    78.32718     0.03058
    13.00000    80.07357   281.86097     0.03060    99.92643    78.13903     0.03060
    13.10000    80.08022   282.04891     0.03061    99.91978    77.95109     0.03061
    13.20000    80.08697   282.23662     0.03063    99.91303    77.76338     0.03063
    13.30000    80.09382   282.42411     0.03065    99.90618    77.57589     0.03065
    13.40000    80.10076   282.61138     0.03066    99.89924    77.38862     0.03066
    13.50000    80.10780   282.79840     0.03068    99.89220    77.20160     0.03068
    13.60000    80.11493   282.98520     0.03070    99.88507    77.01480     0.03070
    13.70000    80.12216   283.17175     0.03071    99.87784    76.82825     0.03071
    13.80000    80.12948   283.35806     0.03073    99.87052    76.64194     0.03073
    13.90000    80.13689   283.54412     0.03075    99.86311    76.45588     0.03075
    14.00000    80.14440   283.72994     0.03077    99.85560    76.27006     0.03077
    14.10000    80.15200   283.91550     0.03078    99.84800    76.08450     0.03078
    14.20000    80.15969   284.10080     0.03080    99.84031    75.89920     0.03080
    14.30000    80.16746   284.28585     0.03082    99.83254    75.71415     0.03082
    14.40000    80.17533   284.47063     0.03084    99.82467    75.52937     0.03084
    14.50000    80.18329   284.65514     0.03086    99.81671    75.34486     0.03086
    14.60000    80.19134   284.83939     0.03088    99.80866    75.16061     0.03088
    14.70000    80.19947   285.02336     0.03090    99.80053    74.97664     0.03090
    14.80000    80.20769   285.20705     0.03092    99.79231    74.79295     0.03092
    14.90000    80.21600   285.39047     0.03094    99.78400    74.60953     0.03094
    15.00000    80.22439   285.57361     0.03096    99.77561    74.42639     0.03096
    15.10000    80.23287   285.75646     0.03099    99.76713    74.24354     0.03099
    15.20000    80.24144   285.93902     0.03101    99.75856    74.06098     0.03101
    15.30000    80.25008   286.12129     0.03103    99.74992    73.87871     0.03103
    15.40000    80.25881   286.30326     0.03105    99.74119    73.69674     0.03105
    15.50000    80.26762   286.48494     0.03107    99.73238    73.51506     0.03107
    15.60000    80.27652   286.66632     0.03110    99.72348    73.33368     0.03110
    15.70000    80.28549   286.84739     0.03112    99.71451    73.15261     0.03112
    15.80000    80.29455   287.02816     0.03114    99.70545    72.97184     0.03114
    15.90000    80.30369   287.20862     0.03117    99.69631    72.79138     0.03117
    16.00000    80.31290   287.38877     0.03119    99.68710    72.61123     0.03119
    16.10000    80.32219   287.56861     0.03122    99.67781    72.43139     0.03122
    16.20000    80.33156   287.74813     0.03124    99.66844    72.25187     0.03124
    16.30000    80.34101   287.92733     0.03127    99.65899    72.07267     0.03127
    16.40000    80.35053   288.10620     0.03129    99.64947    71.89380     0.03129
    16.50000    80.36013   288.28476     0.03132    99.63987    71.71524     0.03132
    16.60000    80.36981   288.46298     0.03134    99.63019    71.53702     0.03134
    16.70000    80.37955   288.64088     0.03137    99.62045    71.35912     0.03137
    16.80000    80.38937   288.81844     0.03140    99.61063    71.18156     0.03140
    16.90000    80.39927   288.99567     0.03142    99.60073    71.00433     0.03142
    17.00000    80.40923   289.17256     0.03145    99.59077    70.82744     0.03145
    17.10000    80.41927   289.34911     0.03148    99.58073    70.65089     0.03148
    17.20000    80.42937   289.52532     0.03151    99.57063    70.47468     0.03151
    17.30000    80.43955   289.70119     0.03153    99.56045    70.29881     0.03153
    17.40000    80.44979   289.87671     0.03156    99.55021    70.12329     0.03156
    17.50000    80.46011   290.05188     0.03159    99.53989    69.94812     0.03159
    17.60000    80.47049   290.22670     0.03162    99.52951    69.77330     0.03162
    17.70000    80.48093   290.40117     0.03165    99.51907    69.59883     0.03165
    17.80000    80.49145   290.57528     0.03168    99.50855    69.42472     0.03168
    17.90000    80.50202   290.74903     0.03171    99.49798    69.25097     0.03171
    18.00000    80.51267   290.92243     0.03174    99.48733    69.07757     0.03174
    18.10000    80.52337   291.09546     0.03177    99.47663    68.90454     0.03177
    18.20000    80.53414   291.26813     0.03180    99.46586    68.73187     0.03180
    18.30000    80.54497   291.44044     0.03183    99.45503    68.55956     0.03183
    18.40000    80.55586   291.61238     0.03186    99.44414    68.38762     0.03186
    18.50000    80.56682   291.78394     0.03189    99.43318    68.21606     0.03189
    18.60000    80.57783   291.95514     0.03192    99.42217    68.04486     0.03192
    18.70000    80.58890   292.12597     0.03196    99.41110    67.87403     0.03196
    18.80000    80.60003   292.29642     0.03199    99.39997    67.70358     0.03199
    18.90000    80.61122   292.46649     0.03202    99.38878    67.53351     0.03202
    19.00000    80.62246   292.63619     0.03205    99.37754    67.36381     0.03205
    19.10000    80.63376   292.80550     0.03209    99.36624    67.19450     0.03209
    19.20000    80.64512   292.97444     0.03212    99.35488    67.02556     0.03212
    19.30000    80.65653   293.14299     0.03215    99.34347    66.85701     0.03215
    19.40000    80.66800   293.31116     0.03219    99.33200    66.68884     0.03219
    19.50000    80.67952   293.47894     0.03222    99.32048    66.52106     0.03222
    19.60000    80.69109   293.64633     0.03226    99.30891    66.35367     0.03226
    19.70000    80.70271   293.81333     0.03229    99.29729    66.18667     0.03229
    19.80000    80.71438   293.97994     0.03232    99.28562    66.02006     0.03232
    19.90000    80.72611   294.14617     0.03236    99.27389    65.85383     0.03236
    20.00000    80.73788   294.31199     0.03239    99.26212    65.68801     0.03239
    20.10000    80.74970   294.47742     0.03243    99.25030    65.52258     0.03243
    20.20000    80.76157   294.64246     0.03247    99.23843    65.35754     0.03247
    20.30000    80.77349   294.80710     0.03250    99.22651    65.19290     0.03250
    20.40000    80.78546   294.97134     0.03254    99.21454    65.02866     0.03254
    20.50000    80.79747   295.13518     0.03258    99.20253    64.86482     0.03258
    20.60000    80.80952   295.29862     0.03261    99.19048    64.70138     0.03261
    20.70000    80.82162   295.46165     0.03265    99.17838    64.53835     0.03265
    20.80000    80.83377   295.62429     0.03269    99.16623    64.37571     0.03269
    20.90000    80.84595   295.78652     0.03272    99.15405    64.21348     0.03272
    21.00000    80.85818   295.94834     0.03276    99.14182    64.05166     0.03276
    21.10000    80.87046   296.10975     0.03280    99.12954    63.89025     0.03280
    21.20000    80.88277   296.27076     0.03284    99.11723    63.72924     0.03284
    21.30000    80.89512   296.43136     0.03288    99.10488    63.56864     0.03288
    21.40000    80.90751   296.59155     0.03292    99.09249    63.40845     0.03292
    21.50000    80.91994   296.75133     0.03296    99.08006    63.24867     0.03296
    21.60000    80.93241   296.91070     0.03300    99.06759    63.08930     0.03300
    21.70000    80.94492   297.06966     0.03304    99.05508    62.93034     0.03304
    21.80000    80.95746   297.22820     0.03307    99.04254    62.77180     0.03307
    21.90000    80.97004   297.38633     0.03312    99.02996    62.61367     0.03312
    22.00000    80.98265   297.54405     0.03316    99.01735    62.45595     0.03316
    22.10000    80.99530   297.70134     0.03320    99.00470    62.29866     0.03320
    22.20000    81.00799   297.85823     0.03324    98.99201    62.14177     0.03324
    22.30000    81.02070   298.01470     0.03328    98.97930    61.98530     0.03328
    22.40000    81.03345   298.17074     0.03332    98.96655    61.82926     0.03332
    22.50000    81.04623   298.32638     0.03336    98.95377    61.67362     0.03336
    22.60000    81.05905   298.48159     0.03340    98.94095    61.51841     0.03340
    22.70000    81.07189   298.63638     0.03344    98.92811    61.36362     0.03344
    22.80000    81.08476   298.79076     0.03349    98.91524    61.20924     0.03349
    22.90000    81.09767   298.94471     0.03353    98.90233    61.05529     0.03353
    23.00000    81.11060   299.09824     0.03357    98.88940    60.90176     0.03357
    23.10000    81.12356   299.25136     0.03362    98.87644    60.74864     0.03362
    23.20000    81.13654   299.40405     0.03366    98.86346    60.59595     0.03366
    23.30000    81.14956   299.55631     0.03370    98.85044    60.44369     0.03370
    23.40000    81.16260   299.70816     0.03375    98.83740    60.29184     0.03375
    23.50000    81.17566   299.85958     0.03379    98.82434    60.14042     0.03379
    23.60000    81.18875   300.01058     0.03383    98.81125    59.98942     0.03383
    23.70000    81.20187   300.16116     0.03388    98.79813    59.83884     0.03388
    23.80000    81.21501   300.31131     0.03392    98.78499    59.68869     0.03392
    23.90000    81.22817   300.46104     0.03397    98.77183    59.53896     0.03397
    24.00000    81.24135   300.61035     0.03401    98.75865    59.38965     0.03401
    24.10000    81.25456   300.75923     0.03406    98.74544    59.24077     0.03406
    24.20000    81.26779   300.90769     0.03410    98.73221    59.09231     0.03410
    24.30000    81.28103   301.05572     0.03415    98.71897    58.94428     0.03415
    24.40000    81.29430   301.20333     0.03419    98.70570    58.79667     0.03419
    24.50000    81.30759   301.35051     0.03424    98.69241    58.64949     0.03424
    24.60000    81.32090   301.49727     0.03429    98.67910    58.50273     0.03429
    24.70000    81.33422   301.64360     0.03433    98.66578    58.35640     0.03433
    24.80000    81.34756   301.78951     0.03438    98.65244    58.21049     0.03438
    24.90000    81.36092   301.93499     0.03443    98.63908    58.06501     0.03443
    25.00000    81.37430   302.08005     0.03447    98.62570    57.91995     0.03447
    25.10000    81.38769   302.22468     0.03452    98.61231    57.77532     0.03452
    25.20000    81.40110   302.36889     0.03457    98.59890    57.63111     0.03457
    25.30000    81.41452   302.51267     0.03462    98.58548    57.48733     0.03462
    25.40000    81.42796   302.65603     0.03466    98.57204    57.34397     0.03466
    25.50000    81.44141   302.79896     0.03471    98.55859    57.20104     0.03471
    25.60000    81.45488   302.94147     0.03476    98.54512    57.05853     0.03476
    25.70000    81.46835   303.08355     0.03481    98.53165    56.91645     0.03481
    25.80000    81.48184   303.22521     0.03486    98.51816    56.77479     0.03486
    25.90000    81.49535   303.36644     0.03491    98.50465    56.63356     0.03491
    26.00000    81.50886   303.50726     0.03496    98.49114    56.49274     0.03496
    26.10000    81.52238   303.64764     0.03501    98.47762    56.35236     0.03501
    26.20000    81.53591   303.78761     0.03506    98.46409    56.21239     0.03506
    26.30000    81.54946   303.92715     0.03511    98.45054    56.07285     0.03511
    26.40000    81.56301   304.06627     0.03516    98.43699    55.93373     0.03516
    26.50000    81.57657   304.20496     0.03521    98.42343    55.79504     0.03521
    26.60000    81.59014   304.34323     0.03526    98.40986    55.65677     0.03526
    26.70000    81.60372   304.48109     0.03531    98.39628    55.51891     0.03531
    26.80000    81.61730   304.61852     0.03536    98.38270    55.38148     0.03536
    26.90000    81.63089   304.75552     0.03541    98.36911    55.24448     0.03541
    27.00000    81.64449   304.89211     0.03546    98.35551    55.10789     0.03546
    27.10000    81.65809   305.02828     0.03551    98.34191    54.97172     0.03551
    27.20000    81.67170   305.16403     0.03556    98.32830    54.83597     0.03556
    27.30000    81.68531   305.29935     0.03561    98.31469    54.70065     0.03561
    27.40000    81.69893   305.43426     0.03567    98.30107    54.56574     0.03567
    27.50000    81.71255   305.56875     0.03572    98.28745    54.43125     0.03572
    27.60000    81.72618   305.70282     0.03577    98.27382    54.29718     0.03577
    27.70000    81.73981   305.83648     0.03582    98.26019    54.16352     0.03582
    27.80000    81.75344   305.96972     0.03588    98.24656    54.03028     0.03588
    27.90000    81.76707   306.10254     0.03593    98.23293    53.89746     0.03593
    28.00000    81.78071   306.23494     0.03598    98.21929    53.76506     0.03598
    28.10000    81.79434   306.36693     0.03604    98.20566    53.63307     0.03604
    28.20000    81.80798   306.49850     0.03609    98.19202    53.50150     0.03609
    28.30000    81.82162   306.62966     0.03614    98.17838    53.37034     0.03614
    28.40000    81.83525   306.76041     0.03620    98.16475    53.23959     0.03620
    28.50000    81.84889   306.89074     0.03625    98.15111    53.10926     0.03625
    28.60000    81.86253   307.02066     0.03630    98.13747    52.97934     0.03630
    28.70000    81.87616   307.15017     0.03636    98.12384    52.84983     0.03636
    28.80000    81.88980   307.27927     0.03641    98.11020    52.72073     0.03641
    28.90000    81.90343   307.40795     0.03647    98.09657    52.59205     0.03647
    29.00000    81.91706   307.53623     0.03652    98.08294    52.46377     0.03652
    29.10000    81.93069   307.66410     0.03658    98.06931    52.33590     0.03658
    29.20000    81.94431   307.79156     0.03663    98.05569    52.20844     0.03663
    29.30000    81.95793   307.91861     0.03669    98.04207    52.08139     0.03669
    29.40000    81.97155   308.04525     0.03674    98.02845    51.95475     0.03674
    29.50000    81.98516   308.17149     0.03680    98.01484    51.82851     0.03680
    29.60000    81.99877   308.29732     0.03686    98.00123    51.70268     0.03686
    29.70000    82.01237   308.42275     0.03691    97.98763    51.57725     0.03691
    29.80000    82.02597   308.54777     0.03697    97.97403    51.45223     0.03697
    29.90000    82.03956   308.67240     0.03702    97.96044    51.32760     0.03702
    30.00000    82.05315   308.79661     0.03708    97.94685    51.20339     0.03708
    30.10000    82.06673   308.92043     0.03714    97.93327    51.07957     0.03714
    30.20000    82.08030   309.04384     0.03719    97.91970    50.95616     0.03719
    30.30000    82.09387   309.16686     0.03725    97.90613    50.83314     0.03725
    30.40000    82.10743   309.28948     0.03731    97.89257    50.71052     0.03731
    30.50000    82.12098   309.41169     0.03737    97.87902    50.58831     0.03737
    30.60000    82.13452   309.53351     0.03742    97.86548    50.46649     0.03742
    30.70000    82.14806   309.65494     0.03748    97.85194    50.34506     0.03748
    30.80000    82.16159   309.77596     0.03754    97.83841    50.22404     0.03754
    30.90000    82.17511   309.89660     0.03760    97.82489    50.10340     0.03760
    31.00000    82.18862   310.01684     0.03765    97.81138    49.98316     0.03765
    31.10000    82.20212   310.13668     0.03771    97.79788    49.86332     0.03771
    31.20000    82.21561   310.25613     0.03777    97.78439    49.74387     0.03777
    31.30000    82.22909   310.37520     0.03783    97.77091    49.62480     0.03783
    31.40000    82.24256   310.49387     0.03789    97.75744    49.50613     0.03789
    31.50000    82.25602   310.61215     0.03795    97.74398    49.38785     0.03795
    31.60000    82.26946   310.73004     0.03801    97.73054    49.26996     0.03801
    31.70000    82.28290   310.84755     0.03807    97.71710    49.15245     0.03807
    31.80000    82.29633   310.96467     0.03812    97.70367    49.03533     0.03812
    31.90000    82.30974   311.08140     0.03818    97.69026    48.91860     0.03818
    32.00000    82.32315   311.19775     0.03824    97.67685    48.80225     0.03824
    32.10000    82.33654   311.31371     0.03830    97.66346    48.68629     0.03830
    32.20000    82.34991   311.42929     0.03836    97.65009    48.57071     0.03836
    32.30000    82.36328   311.54449     0.03842    97.63672    48.45551     0.03842
    32.40000    82.37663   311.65931     0.03848    97.62337    48.34069     0.03848
    32.50000    82.38997   311.77375     0.03854    97.61003    48.22625     0.03854
    32.60000    82.40330   311.88780     0.03861    97.59670    48.11220     0.03861
    32.70000    82.41661   312.00149     0.03867    97.58339    47.99851     0.03867
    32.80000    82.42991   312.11479     0.03873    97.57009    47.88521     0.03873
    32.90000    82.44319   312.22772     0.03879    97.55681    47.77228     0.03879
    33.00000    82.45646   312.34027     0.03885    97.54354    47.65973     0.03885
    33.10000    82.46972   312.45245     0.03891    97.53028    47.54755     0.03891
    33.20000    82.48296   312.56425     0.03897    97.51704    47.43575     0.03897
    33.30000    82.49619   312.67569     0.03903    97.50381    47.32431     0.03903
    33.40000    82.50940   312.78675     0.03909    97.49060    47.21325     0.03909
    33.50000    82.52259   312.89744     0.03916    97.47741    47.10256     0.03916
    33.60000    82.53577   313.00777     0.03922    97.46423    46.99223     0.03922
    33.70000    82.54893   313.11772     0.03928    97.45107    46.88228     0.03928
    33.80000    82.56208   313.22731     0.03934    97.43792    46.77269     0.03934
    33.90000    82.57521   313.33653     0.03941    97.42479    46.66347     0.03941
    34.00000    82.58833   313.44539     0.03947    97.41167    46.55461     0.03947
    34.10000    82.60143   313.55389     0.03953    97.39857    46.44611     0.03953
    34.20000    82.61451   313.66202     0.03959    97.38549    46.33798     0.03959
    34.30000    82.62757   313.76979     0.03966    97.37243    46.23021     0.03966
    34.40000    82.64062   313.87720     0.03972    97.35938    46.12280     0.03972
    34.50000    82.65365   313.98425     0.03978    97.34635    46.01575     0.03978
    34.60000    82.66666   314.09094     0.03985    97.33334    45.90906     0.03985
    34.70000    82.67966   314.19728     0.03991    97.32034    45.80272     0.03991
    34.80000    82.69263   314.30326     0.03997    97.30737    45.69674     0.03997
    34.90000    82.70559   314.40888     0.04004    97.29441    45.59112     0.04004
    35.00000    82.71853   314.51415     0.04010    97.28147    45.48585     0.04010
    35.10000    82.73145   314.61907     0.04016    97.26855    45.38093     0.04016
    35.20000    82.74436   314.72363     0.04023    97.25564    45.27637     0.04023
    35.30000    82.75724   314.82785     0.04029    97.24276    45.17215     0.04029
    35.40000    82.77011   314.93171     0.04036    97.22989    45.06829     0.04036
    35.50000    82.78296   315.03523     0.04042    97.21704    44.96477     0.04042
    35.60000    82.79578   315.13840     0.04049    97.20422    44.86160     0.04049
    35.70000    82.80859   315.24122     0.04055    97.19141    44.75878     0.04055
    35.80000    82.82138   315.34370     0.04061    97.17862    44.65630     0.04061
    35.90000    82.83415   315.44583     0.04068    97.16585    44.55417     0.04068
    36.00000    82.84690   315.54762     0.04074    97.15310    44.45238     0.04074
    36.10000    82.85963   315.64906     0.04081    97.14037    44.35094     0.04081
    36.20000    82.87234   315.75017     0.04087    97.12766    44.24983     0.04087
    36.30000    82.88503   315.85094     0.04094    97.11497    44.14906     0.04094
    36.40000    82.89770   315.95136     0.04101    97.10230    44.04864     0.04101
    36.50000    82.91035   316.05145     0.04107    97.08965    43.94855     0.04107
    36.60000    82.92298   316.15121     0.04114    97.07702    43.84879     0.04114
    36.70000    82.93559   316.25062     0.04120    97.06441    43.74938     0.04120
    36.80000    82.94818   316.34971     0.04127    97.05182    43.65029     0.04127
    36.90000    82.96075   316.44846     0.04133    97.03925    43.55154     0.04133
    37.00000    82.97329   316.54688     0.04140    97.02671    43.45312     0.04140
    37.10000    82.98582   316.64496     0.04147    97.01418    43.35504     0.04147
    37.20000    82.99832   316.74272     0.04153    97.00168    43.25728     0.04153
    37.30000    83.01080   316.84015     0.04160    96.98920    43.15985     0.04160
    37.40000    83.02327   316.93725     0.04167    96.97673    43.06275     0.04167
    37.50000    83.03571   317.03402     0.04173    96.96429    42.96598     0.04173
    37.60000    83.04812   317.13047     0.04180    96.95188    42.86953     0.04180
    37.70000    83.06052   317.22659     0.04187    96.93948    42.77341     0.04187
    37.80000    83.07290   317.32239     0.04193    96.92710    42.67761     0.04193
    37.90000    83.08525   317.41787     0.04200    96.91475    42.58213     0.04200
    38.00000    83.09758   317.51303     0.04207    96.90242    42.48697     0.04207
    38.10000    83.10989   317.60787     0.04214    96.89011    42.39213     0.04214
    38.20000    83.12218   317.70239     0.04220    96.87782    42.29761     0.04220
    38.30000    83.13444   317.79659     0.04227    96.86556    42.20341     0.04227
    38.40000    83.14669   317.89047     0.04234    96.85331    42.10953     0.04234
    38.50000    83.15891   317.98404     0.04241    96.84109    42.01596     0.04241
    38.60000    83.17111   318.07729     0.04248    96.82889    41.92271     0.04248
    38.70000    83.18328   318.17023     0.04254    96.81672    41.82977     0.04254
    38.80000    83.19544   318.26286     0.04261    96.80456    41.73714     0.04261
    38.90000    83.20757   318.35518     0.04268    96.79243    41.64482     0.04268
    39.00000    83.21968   318.44719     0.04275    96.78032    41.55281     0.04275
    39.10000    83.23176   318.53889     0.04282    96.76824    41.46111     0.04282
    39.20000    83.24382   318.63028     0.04288    96.75618    41.36972     0.04288
    39.30000    83.25586   318.72136     0.04295    96.74414    41.27864     0.04295
    39.40000    83.26788   318.81214     0.04302    96.73212    41.18786     0.04302
    39.50000    83.27987   318.90261     0.04309    96.72013    41.09739     0.04309
    39.60000    83.29184   318.99278     0.04316    96.70816    41.00722     0.04316
    39.70000    83.30379   319.08265     0.04323    96.69621    40.91735     0.04323
    39.80000    83.31572   319.17221     0.04330    96.68428    40.82779     0.04330
    39.90000    83.32762   319.26148     0.04337    96.67238    40.73852     0.04337
    40.00000    83.33950   319.35045     0.04344    96.66050    40.64955     0.04344
