 # applied field (T), theta (degree), phi (degree), abs
     0.00000    90.00000    45.42857    54.19418
     0.10000    89.71338    45.42857    54.19418
     0.20000    89.42675    44.57143    54.19418
     0.30000    89.19745    45.42857    54.19418
     0.40000    88.91083    45.42857    54.19418
     0.50000    88.62420    44.57143    54.19418
     0.60000    88.33758    45.42857    54.19418
     0.70000    88.10828    45.42857    54.19418
     0.80000    87.82166    44.57143    54.19418
     0.90000    87.53503    44.57143    54.19418
     1.00000    87.24841    45.42857    54.19418
     1.10000    86.96178    44.57143    54.19418
     1.20000    86.73248    44.57143    54.19418
     1.30000    86.44586    44.57143    54.19418
     1.40000    86.15924    45.42857    54.19418
     1.50000    85.87261    44.57143    54.19418
     1.60000    85.64331    44.57143    54.19418
     1.70000    85.35669    44.57143    54.19418
     1.80000    85.07006    44.57143    54.19418
     1.90000    84.84076    45.42857    54.19418
     2.00000    84.55414    45.42857    54.19418
     2.10000    84.26752    45.42857    54.19418
     2.20000    83.98089    44.57143    54.19418
     2.30000    83.75159    45.42857    54.19418
     2.40000    83.46497    44.57143    54.19418
     2.50000    83.17834    45.00000    54.19418
     2.60000    82.94904    45.00000    54.19418
     2.70000    82.66242    45.00000    54.19418
     2.80000    82.37580    45.00000    54.19418
     2.90000    82.14650    45.00000    54.19418
     3.00000    81.85987    45.00000    54.19418
     3.10000    81.57325    45.00000    54.19418
     3.20000    81.34395    45.00000    54.19418
     3.30000    81.05732    45.00000    54.19418
     3.40000    80.82803    45.00000    54.19418
     3.50000    80.54140    45.00000    54.19418
     3.60000    80.25478    45.00000    54.19418
     3.70000    80.02548    45.00000    54.19418
     3.80000    79.73885    45.00000    54.19418
     3.90000    79.50955    44.56311    54.19418
     4.00000    79.22293    45.43689    54.19418
     4.10000    78.99363    44.56311    54.19418
     4.20000    78.70701    45.43689    54.19418
     4.30000    78.47771    44.56311    54.19418
     4.40000    78.19108    44.56311    54.19418
     4.50000    77.96178    45.43689    54.19418
     4.60000    77.67516    44.56311    54.19418
     4.70000    77.44586    44.56311    54.19418
     4.80000    77.15924    44.56311    54.19418
     4.90000    76.87261    45.00000    54.19418
     5.00000    76.70064    45.00000    54.19418
     5.10000    76.41401    45.00000    54.19418
     5.20000    76.18471    45.00000    54.19418
     5.30000    75.89809    45.00000    54.19418
     5.40000    75.66879    45.00000    54.19418
     5.50000    75.43949    45.00000    54.19418
     5.60000    75.15287    45.00000    54.19418
     5.70000    74.92357    45.00000    54.19418
     5.80000    74.69427    45.00000    54.19418
     5.90000    74.40764    45.44554    54.19418
     6.00000    74.17834    44.55446    54.19418
     6.10000    73.94904    44.55446    54.19418
     6.20000    73.71975    44.55446    54.19418
     6.30000    73.43312    45.44554    54.19418
     6.40000    73.20382    44.55446    54.19418
     6.50000    72.97452    45.44554    54.19418
     6.60000    72.68790    45.00000    54.19418
     6.70000    72.51592    45.00000    54.19418
     6.80000    72.28662    45.00000    54.19418
     6.90000    72.00000    45.00000    54.19418
     7.00000    71.77070    45.00000    54.19418
     7.10000    71.54140    45.00000    54.19418
     7.20000    71.31210    45.00000    54.19418
     7.30000    71.08280    45.00000    54.19418
     7.40000    70.85350    44.54545    54.19418
     7.50000    70.62420    45.45455    54.19418
     7.60000    70.39490    44.54545    54.19418
     7.70000    70.16561    45.45455    54.19418
     7.80000    69.93631    45.45455    54.19418
     7.90000    69.70701    44.54545    54.19418
     8.00000    69.47771    44.54545    54.19418
     8.10000    69.24841    45.00000    54.19418
     8.20000    69.01911    45.00000    54.19418
     8.30000    68.78981    45.00000    54.19418
     8.40000    68.61783    45.00000    54.19418
     8.50000    68.38854    45.00000    54.19418
     8.60000    68.15924    45.00000    54.19418
     8.70000    67.92994    45.00000    54.19418
     8.80000    67.70064    44.53608    54.19418
     8.90000    67.47134    44.53608    54.19418
     9.00000    67.29936    45.46392    54.19418
     9.10000    67.07006    44.53608    54.19418
     9.20000    66.84076    44.53608    54.19418
     9.30000    66.61146    45.46392    54.19418
     9.40000    66.43949    45.00000    54.19418
     9.50000    66.21019    45.00000    54.19418
     9.60000    65.98089    45.00000    54.19418
     9.70000    65.80892    45.00000    54.19418
     9.80000    65.57962    45.00000    54.19418
     9.90000    65.35032    45.00000    54.19418
    10.00000    65.17834    45.00000    54.19418
    10.10000    64.94904    45.47368    54.19418
    10.20000    64.71975    44.52632    54.19418
    10.30000    64.54777    45.47368    54.19418
    10.40000    64.31847    44.52632    54.19418
    10.50000    64.14650    44.52632    54.19418
    10.60000    63.91720    44.52632    54.19418
    10.70000    63.74522    45.00000    54.19418
    10.80000    63.51592    45.00000    54.19418
    10.90000    63.34395    45.00000    54.19418
    11.00000    63.11465    45.00000    54.19418
    11.10000    62.94268    45.00000    54.19418
    11.20000    62.71338    45.00000    54.19418
    11.30000    62.54140    44.51613    54.19418
    11.40000    62.36943    45.48387    54.19418
    11.50000    62.14013    44.51613    54.19418
    11.60000    61.96815    45.48387    54.19418
    11.70000    61.79618    44.51613    54.19418
    11.80000    61.56688    45.48387    54.19418
    11.90000    61.39490    45.00000    54.19418
    12.00000    61.22293    45.00000    54.19418
    12.10000    60.99363    45.00000    54.19418
    12.20000    60.82166    45.00000    54.19418
    12.30000    60.64968    45.00000    54.19418
    12.40000    60.47771    45.00000    54.19418
    12.50000    60.24841    44.50549    54.19418
    12.60000    60.07643    44.50549    54.19418
    12.70000    59.90446    44.50549    54.19418
    12.80000    59.73248    45.49451    54.19418
    12.90000    59.56051    44.50549    54.19418
    13.00000    59.38854    45.49451    54.19418
    13.10000    59.15924    45.00000    54.19418
    13.20000    58.98726    45.00000    54.19418
    13.30000    58.81529    45.00000    54.19418
    13.40000    58.64331    45.00000    54.19418
    13.50000    58.47134    45.00000    54.19418
    13.60000    58.29936    45.00000    54.19418
    13.70000    58.12739    45.50562    54.19418
    13.80000    57.95541    44.49438    54.19418
    13.90000    57.78344    44.49438    54.19418
    14.00000    57.61146    44.49438    54.19418
    14.10000    57.43949    45.50562    54.19418
    14.20000    57.26752    45.50562    54.19418
    14.30000    57.09554    45.00000    54.19418
    14.40000    56.92357    45.00000    54.19418
    14.50000    56.75159    45.00000    54.19418
    14.60000    56.57962    45.00000    54.19418
    14.70000    56.40764    45.00000    54.19418
    14.80000    56.29299    45.00000    54.19418
    14.90000    56.12102    44.48276    54.19418
    15.00000    55.94904    44.48276    54.19418
    15.10000    55.77707    45.51724    54.19418
    15.20000    55.60510    44.48276    54.19418
    15.30000    55.43312    45.51724    54.19418
    15.40000    55.31847    45.51724    54.19418
    15.50000    55.14650    45.00000    54.19418
    15.60000    54.97452    45.00000    54.19418
    15.70000    54.80255    45.00000    54.19418
    15.80000    54.63057    45.00000    54.19418
    15.90000    54.51592    45.00000    54.19418
    16.00000    54.34395    45.00000    54.19418
    16.10000    54.17197    44.47059    54.19418
    16.20000    54.05732    45.52941    54.19418
    16.30000    53.88535    44.47059    54.19418
    16.40000    53.71338    44.47059    54.19418
    16.50000    53.59873    44.47059    54.19418
    16.60000    53.42675    45.52941    54.19418
    16.70000    53.25478    45.00000    54.19418
    16.80000    53.14013    45.00000    54.19418
    16.90000    52.96815    45.00000    54.19418
    17.00000    52.85350    45.00000    54.19418
    17.10000    52.68153    45.00000    54.19418
    17.20000    52.50955    45.00000    54.19418
    17.30000    52.45223    45.00000    54.19418
    17.40000    52.22293    45.54217    54.19418
    17.50000    52.10828    45.54217    54.19418
    17.60000    51.93631    44.45783    54.19418
    17.70000    51.82166    44.45783    54.19418
    17.80000    51.64968    45.54217    54.19418
    17.90000    51.53503    45.00000    54.19418
    18.00000    51.36306    45.00000    54.19418
    18.10000    51.24841    45.00000    54.19418
    18.20000    51.07643    45.00000    54.19418
    18.30000    50.96178    45.00000    54.19418
    18.40000    50.84713    45.00000    54.19418
    18.50000    50.67516    45.00000    54.19418
    18.60000    50.56051    45.55556    54.19418
    18.70000    50.38854    44.44444    54.19418
    18.80000    50.27389    45.55556    54.19418
    18.90000    50.15924    44.44444    54.19418
    19.00000    49.98726    44.44444    54.19418
    19.10000    49.87261    45.55556    54.19418
    19.20000    49.75796    45.00000    54.19418
    19.30000    49.58599    45.00000    54.19418
    19.40000    49.47134    45.00000    54.19418
    19.50000    49.35669    45.00000    54.19418
    19.60000    49.18471    45.00000    54.19418
    19.70000    49.07006    45.00000    54.19418
    19.80000    49.01274    45.00000    54.19418
    19.90000    48.84076    45.56962    54.19418
    20.00000    48.66879    45.56962    54.19418
    20.10000    48.55414    44.43038    54.19418
    20.20000    48.43949    44.43038    54.19418
    20.30000    48.32484    44.43038    54.19418
    20.40000    48.15287    45.56962    54.19418
    20.50000    48.03822    45.00000    54.19418
    20.60000    47.92357    45.00000    54.19418
    20.70000    47.80892    45.00000    54.19418
    20.80000    47.69427    45.00000    54.19418
    20.90000    47.57962    45.00000    54.19418
    21.00000    47.40764    45.00000    54.19418
    21.10000    47.35032    45.00000    54.19418
    21.20000    47.17834    45.58442    54.19418
    21.30000    47.06369    44.41558    54.19418
    21.40000    46.94904    44.41558    54.19418
    21.50000    46.83439    44.41558    54.19418
    21.60000    46.71975    44.41558    54.19418
    21.70000    46.60510    44.41558    54.19418
    21.80000    46.49045    45.00000    54.19418
    21.90000    46.37580    45.00000    54.19418
    22.00000    46.20382    45.00000    54.19418
    22.10000    46.08917    45.00000    54.19418
    22.20000    45.97452    45.00000    54.19418
    22.30000    45.85987    45.00000    54.19418
    22.40000    45.74522    45.00000    54.19418
    22.50000    45.63057    45.60000    54.19418
    22.60000    45.51592    45.60000    54.19418
    22.70000    45.40127    44.40000    54.19418
    22.80000    45.28662    44.40000    54.19418
    22.90000    45.17197    44.40000    54.19418
    23.00000    45.05732    44.40000    54.19418
    23.10000    44.94268    45.00000    54.19418
    23.20000    44.88535    45.00000    54.19418
    23.30000    44.77070    45.00000    54.19418
    23.40000    44.65605    45.00000    54.19418
    23.50000    44.54140    45.00000    54.19418
    23.60000    44.42675    45.00000    54.19418
    23.70000    44.31210    45.00000    54.19418
    23.80000    44.19745    45.00000    54.19418
    23.90000    44.08280    44.38356    54.19418
    24.00000    43.96815    44.38356    54.19418
    24.10000    43.85350    45.61644    54.19418
    24.20000    43.79618    44.38356    54.19418
    24.30000    43.68153    45.61644    54.19418
    24.40000    43.56688    45.61644    54.19418
    24.50000    43.39490    45.00000    54.19418
    24.60000    43.33758    45.00000    54.19418
    24.70000    43.22293    45.00000    54.19418
    24.80000    43.16561    45.00000    54.19418
    24.90000    43.05096    45.00000    54.19418
    25.00000    42.93631    45.00000    54.19418
    25.10000    42.82166    45.00000    54.19418
    25.20000    42.70701    45.00000    54.19418
    25.30000    42.64968    45.63380    54.19418
    25.40000    42.53503    44.36620    54.19418
    25.50000    42.42038    44.36620    54.19418
    25.60000    42.30573    44.36620    54.19418
    25.70000    42.24841    44.36620    54.19418
    25.80000    42.13376    45.63380    54.19418
    25.90000    42.01911    44.36620    54.19418
    26.00000    41.90446    45.00000    54.19418
    26.10000    41.84713    45.00000    54.19418
    26.20000    41.73248    45.00000    54.19418
    26.30000    41.61783    45.00000    54.19418
    26.40000    41.56051    45.00000    54.19418
    26.50000    41.44586    45.00000    54.19418
    26.60000    41.33121    45.00000    54.19418
    26.70000    41.27389    45.00000    54.19418
    26.80000    41.21656    45.00000    54.19418
    26.90000    41.04459    45.65217    54.19418
    27.00000    40.98726    44.34783    54.19418
    27.10000    40.87261    45.65217    54.19418
    27.20000    40.75796    44.34783    54.19418
    27.30000    40.70064    45.65217    54.19418
    27.40000    40.58599    45.65217    54.19418
    27.50000    40.47134    45.00000    54.19418
    27.60000    40.41401    45.00000    54.19418
    27.70000    40.29936    45.00000    54.19418
    27.80000    40.24204    45.00000    54.19418
    27.90000    40.12739    45.00000    54.19418
    28.00000    40.01274    45.00000    54.19418
    28.10000    39.95541    45.00000    54.19418
    28.20000    39.84076    45.00000    54.19418
    28.30000    39.78344    45.00000    54.19418
    28.40000    39.66879    45.67164    54.19418
    28.50000    39.61146    44.32836    54.19418
    28.60000    39.49682    44.32836    54.19418
    28.70000    39.38217    45.67164    54.19418
    28.80000    39.32484    45.67164    54.19418
    28.90000    39.21019    44.32836    54.19418
    29.00000    39.15287    45.67164    54.19418
    29.10000    39.03822    45.00000    54.19418
    29.20000    38.98089    45.00000    54.19418
    29.30000    38.86624    45.00000    54.19418
    29.40000    38.80892    45.00000    54.19418
    29.50000    38.69427    45.00000    54.19418
    29.60000    38.63694    45.00000    54.19418
    29.70000    38.52229    45.00000    54.19418
    29.80000    38.46497    45.00000    54.19418
    29.90000    38.40764    45.00000    54.19418
    30.00000    38.29299    44.30769    54.19418
    30.10000    38.23567    44.30769    54.19418
    30.20000    38.12102    44.30769    54.19418
    30.30000    38.06369    44.30769    54.19418
    30.40000    37.94904    45.69231    54.19418
    30.50000    37.89172    44.30769    54.19418
    30.60000    37.77707    44.30769    54.19418
    30.70000    37.66242    45.00000    54.19418
    30.80000    37.60510    45.00000    54.19418
    30.90000    37.54777    45.00000    54.19418
    31.00000    37.49045    45.00000    54.19418
    31.10000    37.37580    45.00000    54.19418
    31.20000    37.31847    45.00000    54.19418
    31.30000    37.20382    45.00000    54.19418
    31.40000    37.14650    45.00000    54.19418
    31.50000    37.08917    45.00000    54.19418
    31.60000    37.03185    45.00000    54.19418
    31.70000    36.91720    45.71429    54.19418
    31.80000    36.85987    45.71429    54.19418
    31.90000    36.74522    45.71429    54.19418
    32.00000    36.68790    45.71429    54.19418
    32.10000    36.57325    45.71429    54.19418
    32.20000    36.51592    44.28571    54.19418
    32.30000    36.45860    44.28571    54.19418
    32.40000    36.34395    45.71429    54.19418
    32.50000    36.28662    45.00000    54.19418
    32.60000    36.22930    45.00000    54.19418
    32.70000    36.11465    45.00000    54.19418
    32.80000    36.05732    45.00000    54.19418
    32.90000    36.00000    45.00000    54.19418
    33.00000    35.94268    45.00000    54.19418
    33.10000    35.82803    45.00000    54.19418
    33.20000    35.77070    45.00000    54.19418
    33.30000    35.71338    45.00000    54.19418
    33.40000    35.65605    45.00000    54.19418
    33.50000    35.54140    45.73770    54.19418
    33.60000    35.48408    44.26230    54.19418
    33.70000    35.42675    44.26230    54.19418
    33.80000    35.31210    45.73770    54.19418
    33.90000    35.25478    45.73770    54.19418
    34.00000    35.19745    44.26230    54.19418
    34.10000    35.14013    44.26230    54.19418
    34.20000    35.02548    45.73770    54.19418
    34.30000    34.91083    45.00000    54.19418
    34.40000    34.91083    45.00000    54.19418
    34.50000    34.85350    45.00000    54.19418
    34.60000    34.73885    45.00000    54.19418
    34.70000    34.68153    45.00000    54.19418
    34.80000    34.62420    45.00000    54.19418
    34.90000    34.56688    45.00000    54.19418
    35.00000    34.45223    45.00000    54.19418
    35.10000    34.39490    45.00000    54.19418
    35.20000    34.33758    45.00000    54.19418
    35.30000    34.28025    45.76271    54.19418
    35.40000    34.22293    45.76271    54.19418
    35.50000    34.10828    44.23729    54.19418
    35.60000    34.05096    44.23729    54.19418
    35.70000    33.99363    45.76271    54.19418
    35.80000    33.93631    44.23729    54.19418
    35.90000    33.87898    45.76271    54.19418
    36.00000    33.82166    44.23729    54.19418
    36.10000    33.70701    45.76271    54.19418
    36.20000    33.64968    44.23729    54.19418
    36.30000    33.59236    45.00000    54.19418
    36.40000    33.53503    45.00000    54.19418
    36.50000    33.47771    45.00000    54.19418
    36.60000    33.42038    45.00000    54.19418
    36.70000    33.30573    45.00000    54.19418
    36.80000    33.24841    45.00000    54.19418
    36.90000    33.19108    45.00000    54.19418
    37.00000    33.13376    45.00000    54.19418
    37.10000    33.07643    45.00000    54.19418
    37.20000    33.01911    45.00000    54.19418
    37.30000    32.96178    44.21053    54.19418
    37.40000    32.90446    44.21053    54.19418
    37.50000    32.78981    45.78947    54.19418
    37.60000    32.73248    44.21053    54.19418
    37.70000    32.67516    44.21053    54.19418
    37.80000    32.61783    44.21053    54.19418
    37.90000    32.56051    44.21053    54.19418
    38.00000    32.50318    45.78947    54.19418
    38.10000    32.44586    45.78947    54.19418
    38.20000    32.38854    45.78947    54.19418
    38.30000    32.27389    45.00000    54.19418
    38.40000    32.27389    45.00000    54.19418
    38.50000    32.21656    45.00000    54.19418
    38.60000    32.10191    45.00000    54.19418
    38.70000    32.04459    45.00000    54.19418
    38.80000    31.98726    45.00000    54.19418
    38.90000    31.92994    45.00000    54.19418
    39.00000    31.87261    45.00000    54.19418
    39.10000    31.81529    45.00000    54.19418
    39.20000    31.75796    45.00000    54.19418
    39.30000    31.70064    45.00000    54.19418
    39.40000    31.70064    45.00000    54.19418
    39.50000    31.58599    45.81818    54.19418
    39.60000    31.52866    44.18182    54.19418
    39.70000    31.47134    44.18182    54.19418
    39.80000    31.41401    44.18182    54.19418
    39.90000    31.35669    44.18182    54.19418
    40.00000    31.29936    44.18182    54.19418
