 # applied field (T), theta (degree), phi (degree), abs for RE 3-4
     0.00000   180.00000   360.00000     4.44843   180.00000   360.00000     4.44843
     0.10000   179.88701   180.00000     4.44843   179.86077   180.00000     4.44843
     0.20000   179.73613   180.00000     4.44842   179.67512   180.00000     4.44843
     0.30000   179.62313   180.00000     4.44842   179.53589   180.00000     4.44842
     0.40000   179.47224   180.00000     4.44841   179.35024   180.00000     4.44842
     0.50000   179.35923   180.00000     4.44840   179.21101   180.00000     4.44841
     0.60000   179.24622   180.00000     4.44839   179.07177   180.00000     4.44841
     0.70000   179.09530   180.00000     4.44837   178.88611   180.00000     4.44840
     0.80000   178.98227   180.00000     4.44835   178.74687   180.00000     4.44839
     0.90000   178.83132   180.00000     4.44833   178.56120   180.00000     4.44838
     1.00000   178.71827   180.00000     4.44831   178.42196   180.00000     4.44837
     1.10000   178.60520   180.00000     4.44828   178.28271   180.00000     4.44836
     1.20000   178.45420   180.00000     4.44825   178.09702   180.00000     4.44835
     1.30000   178.34110   180.00000     4.44822   177.95776   180.00000     4.44833
     1.40000   178.22798   180.00000     4.44819   177.81850   180.00000     4.44832
     1.50000   178.07691   180.00000     4.44815   177.63279   180.00000     4.44830
     1.60000   177.96376   180.00000     4.44812   177.49352   180.00000     4.44828
     1.70000   177.81263   180.00000     4.44807   177.30780   180.00000     4.44826
     1.80000   177.69942   180.00000     4.44803   177.16851   180.00000     4.44824
     1.90000   177.58620   180.00000     4.44799   177.02921   180.00000     4.44823
     2.00000   177.43497   180.00000     4.44794   176.84346   180.00000     4.44820
     2.10000   177.32169   180.00000     4.44789   176.70415   180.00000     4.44818
     2.20000   177.17038   180.00000     4.44783   176.51837   180.00000     4.44815
     2.30000   177.05704   180.00000     4.44778   176.37904   180.00000     4.44813
     2.40000   176.94367   180.00000     4.44773   176.23971   180.00000     4.44810
     2.50000   176.79224   180.00000     4.44766   176.05390   180.00000     4.44807
     2.60000   176.67879   180.00000     4.44761   175.91454   180.00000     4.44804
     2.70000   176.52727   180.00000     4.44753   175.72870   180.00000     4.44801
     2.80000   176.41375   180.00000     4.44747   175.58932   180.00000     4.44798
     2.90000   176.30020   180.00000     4.44741   175.44993   180.00000     4.44795
     3.00000   176.14852   180.00000     4.44732   175.26405   180.00000     4.44791
     3.10000   176.03488   180.00000     4.44726   175.12463   180.00000     4.44788
     3.20000   175.92120   180.00000     4.44719   174.98521   180.00000     4.44785
     3.30000   175.76935   180.00000     4.44709   174.79928   180.00000     4.44781
     3.40000   175.65558   180.00000     4.44702   174.65982   180.00000     4.44777
     3.50000   175.50361   180.00000     4.44692   174.47386   180.00000     4.44773
     3.60000   175.38974   180.00000     4.44685   174.33438   180.00000     4.44769
     3.70000   175.27582   180.00000     4.44677   174.19488   180.00000     4.44766
     3.80000   175.12365   180.00000     4.44666   174.00886   180.00000     4.44761
     3.90000   175.00962   180.00000     4.44657   173.86934   180.00000     4.44757
     4.00000   174.89555   180.00000     4.44649   173.72980   180.00000     4.44753
     4.10000   174.74316   180.00000     4.44637   173.54371   180.00000     4.44747
     4.20000   174.62897   180.00000     4.44628   173.40414   180.00000     4.44743
     4.30000   174.51473   180.00000     4.44619   173.26456   180.00000     4.44739
     4.40000   174.36211   180.00000     4.44607   173.07841   180.00000     4.44733
     4.50000   174.24774   180.00000     4.44597   172.93879   180.00000     4.44729
     4.60000   174.09495   180.00000     4.44584   172.75259   180.00000     4.44723
     4.70000   173.98045   180.00000     4.44574   172.61293   180.00000     4.44718
     4.80000   173.86588   180.00000     4.44563   172.47326   180.00000     4.44713
     4.90000   173.71283   180.00000     4.44550   172.28699   180.00000     4.44707
     5.00000   173.59813   180.00000     4.44539   172.14727   180.00000     4.44702
     5.10000   173.48336   180.00000     4.44528   172.00754   180.00000     4.44697
     5.20000   173.33003   180.00000     4.44513   171.82119   180.00000     4.44690
     5.30000   173.21511   180.00000     4.44502   171.68142   180.00000     4.44685
     5.40000   173.10012   180.00000     4.44490   171.54162   180.00000     4.44680
     5.50000   172.94650   180.00000     4.44474   171.35520   180.00000     4.44673
     5.60000   172.83135   180.00000     4.44462   171.21536   180.00000     4.44667
     5.70000   172.71613   180.00000     4.44450   171.07550   180.00000     4.44661
     5.80000   172.56219   180.00000     4.44433   170.88899   180.00000     4.44654
     5.90000   172.44680   180.00000     4.44421   170.74909   180.00000     4.44648
     6.00000   172.33134   180.00000     4.44408   170.60916   180.00000     4.44642
     6.10000   172.17707   180.00000     4.44391   170.42256   180.00000     4.44634
     6.20000   172.06142   180.00000     4.44377   170.28259   180.00000     4.44628
     6.30000   171.94570   180.00000     4.44364   170.14259   180.00000     4.44622
     6.40000   171.79108   180.00000     4.44345   169.95589   180.00000     4.44614
     6.50000   171.67516   180.00000     4.44331   169.81585   180.00000     4.44607
     6.60000   171.55916   180.00000     4.44317   169.67578   180.00000     4.44601
     6.70000   171.40418   180.00000     4.44298   169.48898   180.00000     4.44592
     6.80000   171.28798   180.00000     4.44283   169.34886   180.00000     4.44586
     6.90000   171.17169   180.00000     4.44268   169.20872   180.00000     4.44579
     7.00000   171.01631   180.00000     4.44249   169.02182   180.00000     4.44570
     7.10000   170.89981   180.00000     4.44233   168.88162   180.00000     4.44563
     7.20000   170.78322   180.00000     4.44218   168.74139   180.00000     4.44556
     7.30000   170.62744   180.00000     4.44197   168.55439   180.00000     4.44547
     7.40000   170.51063   180.00000     4.44181   168.41410   180.00000     4.44539
     7.50000   170.39372   180.00000     4.44165   168.27380   180.00000     4.44532
     7.60000   170.27671   180.00000     4.44148   168.13346   180.00000     4.44525
     7.70000   170.12037   180.00000     4.44126   167.94631   180.00000     4.44515
     7.80000   170.00313   180.00000     4.44109   167.80591   180.00000     4.44507
     7.90000   169.88579   180.00000     4.44092   167.66549   180.00000     4.44499
     8.00000   169.72900   180.00000     4.44070   167.47822   180.00000     4.44489
     8.10000   169.61141   180.00000     4.44052   167.33774   180.00000     4.44481
     8.20000   169.49371   180.00000     4.44034   167.19723   180.00000     4.44474
     8.30000   169.37591   180.00000     4.44016   167.05669   180.00000     4.44465
     8.40000   169.21849   180.00000     4.43992   166.86926   180.00000     4.44455
     8.50000   169.10043   180.00000     4.43974   166.72865   180.00000     4.44447
     8.60000   168.98225   180.00000     4.43955   166.58802   180.00000     4.44438
     8.70000   168.82434   180.00000     4.43931   166.40046   180.00000     4.44427
     8.80000   168.70590   180.00000     4.43912   166.25976   180.00000     4.44419
     8.90000   168.58733   180.00000     4.43892   166.11903   180.00000     4.44410
     9.00000   168.46865   180.00000     4.43873   165.97826   180.00000     4.44402
     9.10000   168.31005   180.00000     4.43847   165.79054   180.00000     4.44390
     9.20000   168.19108   180.00000     4.43827   165.64970   180.00000     4.44381
     9.30000   168.07199   180.00000     4.43807   165.50884   180.00000     4.44372
     9.40000   167.95277   180.00000     4.43787   165.36794   180.00000     4.44363
     9.50000   167.79345   180.00000     4.43760   165.18003   180.00000     4.44351
     9.60000   167.67393   180.00000     4.43739   165.03906   180.00000     4.44342
     9.70000   167.55428   180.00000     4.43718   164.89806   180.00000     4.44333
     9.80000   167.43450   180.00000     4.43697   164.75703   180.00000     4.44323
     9.90000   167.27443   180.00000     4.43669   164.56893   180.00000     4.44311
    10.00000   167.15433   180.00000     4.43647   164.42782   180.00000     4.44302
    10.10000   167.03409   180.00000     4.43625   164.28668   180.00000     4.44292
    10.20000   166.91371   180.00000     4.43603   164.14550   180.00000     4.44282
    10.30000   166.75285   180.00000     4.43574   163.95721   180.00000     4.44269
    10.40000   166.63214   180.00000     4.43551   163.81595   180.00000     4.44259
    10.50000   166.51129   180.00000     4.43528   163.67466   180.00000     4.44249
    10.60000   166.39029   180.00000     4.43505   163.53333   180.00000     4.44239
    10.70000   166.26914   180.00000     4.43482   163.39196   180.00000     4.44229
    10.80000   166.10725   180.00000     4.43452   163.20343   180.00000     4.44216
    10.90000   165.98575   180.00000     4.43428   163.06198   180.00000     4.44206
    11.00000   165.86410   180.00000     4.43404   162.92050   180.00000     4.44195
    11.10000   165.74229   180.00000     4.43380   162.77898   180.00000     4.44185
    11.20000   165.62032   180.00000     4.43356   162.63742   180.00000     4.44174
    11.30000   165.45734   180.00000     4.43324   162.44863   180.00000     4.44160
    11.40000   165.33500   180.00000     4.43299   162.30698   180.00000     4.44149
    11.50000   165.21250   180.00000     4.43274   162.16530   180.00000     4.44138
    11.60000   165.08984   180.00000     4.43249   162.02358   180.00000     4.44128
    11.70000   164.96701   180.00000     4.43224   161.88181   180.00000     4.44117
    11.80000   164.80286   180.00000     4.43190   161.69275   180.00000     4.44102
    11.90000   164.67964   180.00000     4.43165   161.55090   180.00000     4.44091
    12.00000   164.55625   180.00000     4.43139   161.40901   180.00000     4.44080
    12.10000   164.43268   180.00000     4.43113   161.26708   180.00000     4.44068
    12.20000   164.30893   180.00000     4.43086   161.12511   180.00000     4.44057
    12.30000   164.14356   180.00000     4.43051   160.93577   180.00000     4.44042
    12.40000   164.01940   180.00000     4.43024   160.79370   180.00000     4.44030
    12.50000   163.89506   180.00000     4.42997   160.65159   180.00000     4.44019
    12.60000   163.77054   180.00000     4.42970   160.50944   180.00000     4.44007
    12.70000   163.64583   180.00000     4.42943   160.36725   180.00000     4.43995
    12.80000   163.52094   180.00000     4.42915   160.22502   180.00000     4.43983
    12.90000   163.39585   180.00000     4.42887   160.08274   180.00000     4.43971
    13.00000   163.22869   180.00000     4.42850   159.89300   180.00000     4.43955
    13.10000   163.10315   180.00000     4.42822   159.75062   180.00000     4.43943
    13.20000   162.97743   180.00000     4.42793   159.60820   180.00000     4.43931
    13.30000   162.85150   180.00000     4.42765   159.46574   180.00000     4.43918
    13.40000   162.72538   180.00000     4.42736   159.32323   180.00000     4.43906
    13.50000   162.59905   180.00000     4.42707   159.18068   180.00000     4.43894
    13.60000   162.47253   180.00000     4.42677   159.03808   180.00000     4.43881
    13.70000   162.30343   180.00000     4.42638   158.84790   180.00000     4.43864
    13.80000   162.17642   180.00000     4.42609   158.70520   180.00000     4.43852
    13.90000   162.04920   180.00000     4.42579   158.56245   180.00000     4.43839
    14.00000   161.92178   180.00000     4.42548   158.41965   180.00000     4.43826
    14.10000   161.79413   180.00000     4.42518   158.27681   180.00000     4.43813
    14.20000   161.66627   180.00000     4.42487   158.13392   180.00000     4.43800
    14.30000   161.53820   180.00000     4.42457   157.99098   180.00000     4.43787
    14.40000   161.40990   180.00000     4.42426   157.84800   180.00000     4.43773
    14.50000   161.28138   180.00000     4.42394   157.70496   180.00000     4.43760
    14.60000   161.15264   180.00000     4.42363   157.56188   180.00000     4.43747
    14.70000   160.98058   180.00000     4.42321   157.37106   180.00000     4.43729
    14.80000   160.85131   180.00000     4.42289   157.22786   180.00000     4.43716
    14.90000   160.72180   180.00000     4.42257   157.08462   180.00000     4.43702
    15.00000   160.59207   180.00000     4.42225   156.94132   180.00000     4.43688
    15.10000   160.46209   180.00000     4.42193   156.79797   180.00000     4.43674
    15.20000   160.33188   180.00000     4.42160   156.65457   180.00000     4.43660
    15.30000   160.20143   180.00000     4.42127   156.51112   180.00000     4.43646
    15.40000   160.07074   180.00000     4.42094   156.36762   180.00000     4.43632
    15.50000   159.93981   180.00000     4.42061   156.22407   180.00000     4.43618
    15.60000   159.80862   180.00000     4.42027   156.08046   180.00000     4.43604
    15.70000   159.67719   180.00000     4.41993   155.93681   180.00000     4.43590
    15.80000   159.54551   180.00000     4.41959   155.79309   180.00000     4.43575
    15.90000   159.41357   180.00000     4.41925   155.64933   180.00000     4.43561
    16.00000   159.28138   180.00000     4.41891   155.50551   180.00000     4.43546
    16.10000   159.14893   180.00000     4.41857   155.36163   180.00000     4.43531
    16.20000   159.01622   180.00000     4.41822   155.21770   180.00000     4.43517
    16.30000   158.83885   180.00000     4.41776   155.02575   180.00000     4.43498
    16.40000   158.70553   180.00000     4.41741   154.88169   180.00000     4.43483
    16.50000   158.57193   180.00000     4.41705   154.73757   180.00000     4.43468
    16.60000   158.43807   180.00000     4.41670   154.59340   180.00000     4.43453
    16.70000   158.30393   180.00000     4.41634   154.44917   180.00000     4.43437
    16.80000   158.16952   180.00000     4.41598   154.30488   180.00000     4.43422
    16.90000   158.03483   180.00000     4.41562   154.16054   180.00000     4.43407
    17.00000   157.89986   180.00000     4.41526   154.01613   180.00000     4.43391
    17.10000   157.76461   180.00000     4.41489   153.87167   180.00000     4.43376
    17.20000   157.62907   180.00000     4.41452   153.72715   180.00000     4.43360
    17.30000   157.49325   180.00000     4.41416   153.58256   180.00000     4.43345
    17.40000   157.35713   180.00000     4.41378   153.43792   180.00000     4.43329
    17.50000   157.22073   180.00000     4.41341   153.29321   180.00000     4.43313
    17.60000   157.08402   180.00000     4.41304   153.14844   180.00000     4.43297
    17.70000   156.94702   180.00000     4.41266   153.00361   180.00000     4.43281
    17.80000   156.80972   180.00000     4.41228   152.85872   180.00000     4.43265
    17.90000   156.67212   180.00000     4.41190   152.71377   180.00000     4.43249
    18.00000   156.53421   180.00000     4.41152   152.56875   180.00000     4.43233
    18.10000   156.39600   180.00000     4.41113   152.42367   180.00000     4.43216
    18.20000   156.25747   180.00000     4.41074   152.27852   180.00000     4.43200
    18.30000   156.11863   180.00000     4.41036   152.13330   180.00000     4.43183
    18.40000   155.97948   180.00000     4.40997   151.98803   180.00000     4.43167
    18.50000   155.84000   180.00000     4.40957   151.84268   180.00000     4.43150
    18.60000   155.70021   180.00000     4.40918   151.69727   180.00000     4.43133
    18.70000   155.60677   180.00000     4.40891   151.60023   180.00000     4.43121
    18.80000   155.46644   180.00000     4.40851   151.45471   180.00000     4.43104
    18.90000   155.32577   180.00000     4.40811   151.30911   180.00000     4.43087
    19.00000   155.18477   180.00000     4.40771   151.16345   180.00000     4.43070
    19.10000   155.04344   180.00000     4.40731   151.01772   180.00000     4.43053
    19.20000   154.90177   180.00000     4.40690   150.87191   180.00000     4.43036
    19.30000   154.75977   180.00000     4.40650   150.72604   180.00000     4.43018
    19.40000   154.61742   180.00000     4.40609   150.58009   180.00000     4.43001
    19.50000   154.47473   180.00000     4.40568   150.43407   180.00000     4.42983
    19.60000   154.33169   180.00000     4.40527   150.28798   180.00000     4.42966
    19.70000   154.18830   180.00000     4.40485   150.14182   180.00000     4.42948
    19.80000   154.04455   180.00000     4.40444   149.99558   180.00000     4.42930
    19.90000   153.90046   180.00000     4.40402   149.84926   180.00000     4.42912
    20.00000   153.75600   180.00000     4.40360   149.70288   180.00000     4.42894
    20.10000   153.61118   180.00000     4.40318   149.55641   180.00000     4.42876
    20.20000   153.46600   180.00000     4.40276   149.40987   180.00000     4.42858
    20.30000   153.32045   180.00000     4.40233   149.26325   180.00000     4.42840
    20.40000   153.22310   180.00000     4.40204   149.16539   180.00000     4.42827
    20.50000   153.07693   180.00000     4.40161   149.01864   180.00000     4.42808
    20.60000   152.93039   180.00000     4.40118   148.87181   180.00000     4.42790
    20.70000   152.78347   180.00000     4.40075   148.72490   180.00000     4.42771
    20.80000   152.63616   180.00000     4.40032   148.57790   180.00000     4.42752
    20.90000   152.48848   180.00000     4.39989   148.43083   180.00000     4.42733
    21.00000   152.34041   180.00000     4.39945   148.28367   180.00000     4.42714
    21.10000   152.19195   180.00000     4.39901   148.13643   180.00000     4.42695
    21.20000   152.04309   180.00000     4.39858   147.98911   180.00000     4.42676
    21.30000   151.89385   180.00000     4.39814   147.84170   180.00000     4.42657
    21.40000   151.79399   180.00000     4.39783   147.74331   180.00000     4.42643
    21.50000   151.64407   180.00000     4.39739   147.59575   180.00000     4.42624
    21.60000   151.49375   180.00000     4.39694   147.44811   180.00000     4.42604
    21.70000   151.34303   180.00000     4.39650   147.30038   180.00000     4.42584
    21.80000   151.19190   180.00000     4.39605   147.15257   180.00000     4.42565
    21.90000   151.04036   180.00000     4.39560   147.00466   180.00000     4.42545
    22.00000   150.88840   180.00000     4.39515   146.85666   180.00000     4.42525
    22.10000   150.73602   180.00000     4.39470   146.70857   180.00000     4.42505
    22.20000   150.58323   180.00000     4.39425   146.56039   180.00000     4.42485
    22.30000   150.48096   180.00000     4.39393   146.46147   180.00000     4.42470
    22.40000   150.32745   180.00000     4.39348   146.31313   180.00000     4.42450
    22.50000   150.17352   180.00000     4.39302   146.16470   180.00000     4.42430
    22.60000   150.01915   180.00000     4.39256   146.01617   180.00000     4.42409
    22.70000   149.86436   180.00000     4.39210   145.86754   180.00000     4.42388
    22.80000   149.70912   180.00000     4.39164   145.71881   180.00000     4.42367
    22.90000   149.55344   180.00000     4.39118   145.56999   180.00000     4.42347
    23.00000   149.44922   180.00000     4.39086   145.47063   180.00000     4.42332
    23.10000   149.29280   180.00000     4.39039   145.32164   180.00000     4.42311
    23.20000   149.13593   180.00000     4.38993   145.17255   180.00000     4.42289
    23.30000   148.97862   180.00000     4.38946   145.02335   180.00000     4.42268
    23.40000   148.82084   180.00000     4.38899   144.87405   180.00000     4.42247
    23.50000   148.66262   180.00000     4.38852   144.72465   180.00000     4.42225
    23.60000   148.50393   180.00000     4.38805   144.57514   180.00000     4.42203
    23.70000   148.39766   180.00000     4.38772   144.47531   180.00000     4.42188
    23.80000   148.23820   180.00000     4.38725   144.32562   180.00000     4.42166
    23.90000   148.07827   180.00000     4.38678   144.17583   180.00000     4.42144
    24.00000   147.91787   180.00000     4.38630   144.02592   180.00000     4.42122
    24.10000   147.75699   180.00000     4.38583   143.87590   180.00000     4.42100
    24.20000   147.59564   180.00000     4.38535   143.72576   180.00000     4.42077
    24.30000   147.43382   180.00000     4.38487   143.57552   180.00000     4.42055
    24.40000   147.32542   180.00000     4.38454   143.47519   180.00000     4.42039
    24.50000   147.16278   180.00000     4.38406   143.32475   180.00000     4.42016
    24.60000   146.99966   180.00000     4.38358   143.17419   180.00000     4.41994
    24.70000   146.83605   180.00000     4.38310   143.02352   180.00000     4.41971
    24.80000   146.67195   180.00000     4.38261   142.87272   180.00000     4.41947
    24.90000   146.50735   180.00000     4.38213   142.72181   180.00000     4.41924
    25.00000   146.39708   180.00000     4.38180   142.62102   180.00000     4.41908
    25.10000   146.23165   180.00000     4.38131   142.46990   180.00000     4.41884
    25.20000   146.06572   180.00000     4.38083   142.31866   180.00000     4.41861
    25.30000   145.89928   180.00000     4.38034   142.16729   180.00000     4.41837
    25.40000   145.73233   180.00000     4.37986   142.01579   180.00000     4.41813
    25.50000   145.56488   180.00000     4.37937   141.86416   180.00000     4.41789
    25.60000   145.45267   180.00000     4.37903   141.76289   180.00000     4.41772
    25.70000   145.28436   180.00000     4.37854   141.61105   180.00000     4.41748
    25.80000   145.11553   180.00000     4.37805   141.45907   180.00000     4.41724
    25.90000   144.94618   180.00000     4.37756   141.30696   180.00000     4.41699
    26.00000   144.77631   180.00000     4.37707   141.15471   180.00000     4.41675
    26.10000   144.60592   180.00000     4.37658   141.00233   180.00000     4.41650
    26.20000   144.49172   180.00000     4.37625   140.90054   180.00000     4.41633
    26.30000   144.32045   180.00000     4.37576   140.74792   180.00000     4.41608
    26.40000   144.14864   180.00000     4.37526   140.59516   180.00000     4.41582
    26.50000   143.97630   180.00000     4.37477   140.44226   180.00000     4.41557
    26.60000   143.80342   180.00000     4.37428   140.28921   180.00000     4.41532
    26.70000   143.63001   180.00000     4.37379   140.13602   180.00000     4.41506
    26.80000   143.51378   180.00000     4.37345   140.03369   180.00000     4.41488
    26.90000   143.33946   180.00000     4.37296   139.88024   180.00000     4.41462
    27.00000   143.16460   180.00000     4.37246   139.72665   180.00000     4.41436
    27.10000   142.98919   180.00000     4.37197   139.57291   180.00000     4.41410
    27.20000   142.81324   180.00000     4.37148   139.41901   180.00000     4.41384
    27.30000   142.63674   180.00000     4.37099   139.26495   180.00000     4.41357
    27.40000   142.51842   180.00000     4.37065   139.16203   180.00000     4.41339
    27.50000   142.34099   180.00000     4.37015   139.00771   180.00000     4.41312
    27.60000   142.16302   180.00000     4.36966   138.85323   180.00000     4.41285
    27.70000   141.98448   180.00000     4.36917   138.69859   180.00000     4.41258
    27.80000   141.80539   180.00000     4.36868   138.54378   180.00000     4.41231
    27.90000   141.68532   180.00000     4.36834   138.44034   180.00000     4.41212
    28.00000   141.50529   180.00000     4.36785   138.28525   180.00000     4.41184
    28.10000   141.32470   180.00000     4.36736   138.12999   180.00000     4.41156
    28.20000   141.14354   180.00000     4.36687   137.97456   180.00000     4.41129
    28.30000   140.96182   180.00000     4.36638   137.81895   180.00000     4.41101
    28.40000   140.77953   180.00000     4.36589   137.66317   180.00000     4.41072
    28.50000   140.59667   180.00000     4.36540   137.50721   180.00000     4.41044
    28.60000   140.47407   180.00000     4.36507   137.40299   180.00000     4.41024
    28.70000   140.29026   180.00000     4.36458   137.24673   180.00000     4.40996
    28.80000   140.10588   180.00000     4.36409   137.09028   180.00000     4.40967
    28.90000   139.92092   180.00000     4.36361   136.93365   180.00000     4.40938
    29.00000   139.73540   180.00000     4.36312   136.77683   180.00000     4.40909
    29.10000   139.54930   180.00000     4.36264   136.61982   180.00000     4.40879
    29.20000   139.42451   180.00000     4.36230   136.51488   180.00000     4.40859
    29.30000   139.23745   180.00000     4.36182   136.35754   180.00000     4.40829
    29.40000   139.04981   180.00000     4.36134   136.20001   180.00000     4.40799
    29.50000   138.86159   180.00000     4.36086   136.04228   180.00000     4.40769
    29.60000   138.67280   180.00000     4.36038   135.88434   180.00000     4.40739
    29.70000   138.48343   180.00000     4.35990   135.72621   180.00000     4.40709
    29.80000   138.29348   180.00000     4.35943   135.56786   180.00000     4.40678
    29.90000   138.16610   180.00000     4.35910   135.46202   180.00000     4.40657
    30.00000   137.97519   180.00000     4.35862   135.30332   180.00000     4.40626
    30.10000   137.78369   180.00000     4.35815   135.14441   180.00000     4.40595
    30.20000   137.59162   180.00000     4.35768   134.98529   180.00000     4.40563
    30.30000   137.39896   180.00000     4.35721   134.82594   180.00000     4.40532
    30.40000   137.20573   180.00000     4.35674   134.66638   180.00000     4.40500
    30.50000   137.01192   180.00000     4.35628   134.50659   180.00000     4.40468
    30.60000   136.88195   180.00000     4.35596   134.39977   180.00000     4.40446
    30.70000   136.68717   180.00000     4.35549   134.23960   180.00000     4.40413
    30.80000   136.49182   180.00000     4.35503   134.07920   180.00000     4.40381
    30.90000   136.29589   180.00000     4.35457   133.91856   180.00000     4.40348
    31.00000   136.09938   180.00000     4.35412   133.75769   180.00000     4.40315
    31.10000   135.90230   180.00000     4.35366   133.59658   180.00000     4.40282
    31.20000   135.70464   180.00000     4.35321   133.43522   180.00000     4.40249
    31.30000   135.50641   180.00000     4.35276   133.27362   180.00000     4.40216
    31.40000   135.30761   180.00000     4.35231   133.11177   180.00000     4.40182
    31.50000   135.17430   180.00000     4.35200   133.00355   180.00000     4.40158
    31.60000   134.97454   180.00000     4.35155   132.84128   180.00000     4.40124
    31.70000   134.77422   180.00000     4.35111   132.67875   180.00000     4.40090
    31.80000   134.57332   180.00000     4.35067   132.51596   180.00000     4.40055
    31.90000   134.37187   180.00000     4.35023   132.35291   180.00000     4.40020
    32.00000   134.16985   180.00000     4.34980   132.18959   180.00000     4.39985
    32.10000   133.96727   180.00000     4.34937   132.02600   180.00000     4.39950
    32.20000   133.76412   180.00000     4.34894   131.86214   180.00000     4.39915
    32.30000   133.56042   180.00000     4.34851   131.69800   180.00000     4.39879
    32.40000   133.35617   180.00000     4.34809   131.53358   180.00000     4.39843
    32.50000   133.15136   180.00000     4.34767   131.36888   180.00000     4.39807
    32.60000   132.94600   180.00000     4.34725   131.20390   180.00000     4.39771
    32.70000   132.80831   180.00000     4.34696   131.09354   180.00000     4.39745
    32.80000   132.60204   180.00000     4.34655   130.92806   180.00000     4.39708
    32.90000   132.39522   180.00000     4.34614   130.76229   180.00000     4.39671
    33.00000   132.18787   180.00000     4.34573   130.59622   180.00000     4.39634
    33.10000   131.97997   180.00000     4.34533   130.42985   180.00000     4.39596
    33.20000   131.77155   180.00000     4.34493   130.26316   180.00000     4.39559
    33.30000   131.56259   180.00000     4.34453   130.09617   180.00000     4.39521
    33.40000   131.35310   180.00000     4.34414   129.92886   180.00000     4.39482
    33.50000   131.14309   180.00000     4.34375   129.76124   180.00000     4.39444
    33.60000   130.93256   180.00000     4.34337   129.59329   180.00000     4.39405
    33.70000   130.72151   180.00000     4.34298   129.42501   180.00000     4.39366
    33.80000   130.50994   180.00000     4.34260   129.25640   180.00000     4.39326
    33.90000   130.29787   180.00000     4.34223   129.08746   180.00000     4.39287
    34.00000   130.08530   180.00000     4.34186   128.91818   180.00000     4.39247
    34.10000   129.87222   180.00000     4.34149   128.74856   180.00000     4.39207
    34.20000   129.65865   180.00000     4.34113   128.57859   180.00000     4.39167
    34.30000   129.44458   180.00000     4.34077   128.40827   180.00000     4.39126
    34.40000   129.23002   180.00000     4.34041   128.23760   180.00000     4.39085
    34.50000   129.01499   180.00000     4.34006   128.06656   180.00000     4.39044
    34.60000   128.79947   180.00000     4.33971   127.89516   180.00000     4.39002
    34.70000   128.58348   180.00000     4.33937   127.72339   180.00000     4.38960
    34.80000   128.36702   180.00000     4.33903   127.55125   180.00000     4.38918
    34.90000   128.15010   180.00000     4.33869   127.37873   180.00000     4.38876
    35.00000   127.93272   180.00000     4.33836   127.20583   180.00000     4.38834
    35.10000   127.71489   180.00000     4.33803   127.03254   180.00000     4.38791
    35.20000   127.49661   180.00000     4.33771   126.85887   180.00000     4.38747
    35.30000   127.27789   180.00000     4.33739   126.68479   180.00000     4.38704
    35.40000   127.05873   180.00000     4.33708   126.51032   180.00000     4.38660
    35.50000   126.83914   180.00000     4.33677   126.33544   180.00000     4.38616
    35.60000   126.61912   180.00000     4.33646   126.16015   180.00000     4.38572
    35.70000   126.39869   180.00000     4.33616   125.98444   180.00000     4.38527
    35.80000   126.17784   180.00000     4.33586   125.80831   180.00000     4.38482
    35.90000   125.88323   180.00000     4.33549   125.57308   180.00000     4.38423
    36.00000   125.66144   180.00000     4.33520   125.39595   180.00000     4.38378
    36.10000   125.43926   180.00000     4.33492   125.21839   180.00000     4.38332
    36.20000   125.21669   180.00000     4.33464   125.04039   180.00000     4.38286
    36.30000   124.99373   180.00000     4.33437   124.86194   180.00000     4.38239
    36.40000   124.77041   180.00000     4.33410   124.68304   180.00000     4.38192
    36.50000   124.54671   180.00000     4.33384   124.50368   180.00000     4.38145
    36.60000   124.32266   180.00000     4.33358   124.32386   180.00000     4.38098
    36.70000   124.09825   180.00000     4.33332   124.14357   180.00000     4.38050
    36.80000   123.87349   180.00000     4.33307   123.96280   180.00000     4.38002
    36.90000   123.64839   180.00000     4.33283   123.78156   180.00000     4.37954
    37.00000   123.34822   180.00000     4.33252   123.53942   180.00000     4.37890
    37.10000   123.12235   180.00000     4.33229   123.35704   180.00000     4.37841
    37.20000   122.89616   180.00000     4.33206   123.17416   180.00000     4.37792
    37.30000   122.66966   180.00000     4.33183   122.99078   180.00000     4.37742
    37.40000   122.44285   180.00000     4.33161   122.80689   180.00000     4.37692
    37.50000   122.21575   180.00000     4.33140   122.62249   180.00000     4.37641
    37.60000   121.98835   180.00000     4.33119   122.43756   180.00000     4.37591
    37.70000   121.68518   180.00000     4.33093   122.19047   180.00000     4.37524
    37.80000   121.45714   180.00000     4.33073   122.00431   180.00000     4.37473
    37.90000   121.22882   180.00000     4.33053   121.81761   180.00000     4.37421
    38.00000   121.00025   180.00000     4.33034   121.63036   180.00000     4.37369
    38.10000   120.77142   180.00000     4.33015   121.44256   180.00000     4.37317
    38.20000   120.54234   180.00000     4.32997   121.25421   180.00000     4.37264
    38.30000   120.23699   180.00000     4.32975   121.00250   180.00000     4.37195
    38.40000   120.00737   180.00000     4.32958   120.81282   180.00000     4.37142
    38.50000   119.77752   180.00000     4.32941   120.62257   180.00000     4.37088
    38.60000   119.54746   180.00000     4.32925   120.43173   180.00000     4.37034
    38.70000   119.31719   180.00000     4.32909   120.24030   180.00000     4.36980
    38.80000   119.08672   180.00000     4.32893   120.04828   180.00000     4.36925
    38.90000   118.77957   180.00000     4.32875   119.79162   180.00000     4.36853
    39.00000   118.54865   180.00000     4.32860   119.59819   180.00000     4.36798
    39.10000   118.31756   180.00000     4.32846   119.40414   180.00000     4.36742
    39.20000   118.08630   180.00000     4.32833   119.20946   180.00000     4.36686
    39.30000   117.77812   180.00000     4.32817   118.94924   180.00000     4.36612
    39.40000   117.54648   180.00000     4.32804   118.75309   180.00000     4.36556
    39.50000   117.31469   180.00000     4.32792   118.55629   180.00000     4.36499
    39.60000   117.08276   180.00000     4.32780   118.35885   180.00000     4.36442
    39.70000   116.85070   180.00000     4.32769   118.16076   180.00000     4.36384
    39.80000   116.54150   180.00000     4.32756   117.89592   180.00000     4.36308
    39.90000   116.30915   180.00000     4.32745   117.69628   180.00000     4.36250
    40.00000   116.07668   180.00000     4.32735   117.49595   180.00000     4.36192
