 # applied field (T), theta (degree), phi (degree), abs for RE 3-4
     0.00000   178.18537   315.00000     4.40135   178.18537   225.00000     4.40135
     0.10000   178.41145   306.62821     4.40129   177.92949   218.58852     4.40141
     0.20000   178.57069   297.50803     4.40123   177.69392   214.27001     4.40144
     0.30000   178.69944   284.44929     4.40115   177.40593   210.25004     4.40148
     0.40000   178.74883   269.48286     4.40105   177.10779   207.04622     4.40150
     0.50000   178.70958   254.38706     4.40095   176.80233   204.44789     4.40152
     0.60000   178.61050   242.78296     4.40086   176.53611   202.58874     4.40152
     0.70000   178.43444   231.62383     4.40073   176.22165   200.75306     4.40152
     0.80000   178.21160   222.96884     4.40060   175.90387   199.20073     4.40150
     0.90000   177.95708   216.34101     4.40046   175.58346   197.87263     4.40148
     1.00000   177.72158   211.88269     4.40033   175.30710   196.87897     4.40145
     1.10000   177.43270   207.74119     4.40017   174.98305   195.85819     4.40141
     1.20000   177.13283   204.44763     4.40000   174.65749   194.96134     4.40136
     1.30000   176.82496   201.78192     4.39982   174.33064   194.16748     4.40130
     1.40000   176.51108   199.58880     4.39963   174.00268   193.46008     4.40123
     1.50000   176.23828   198.00001     4.39946   173.72075   192.91250     4.40116
     1.60000   175.91653   196.41464     4.39925   173.39103   192.33250     4.40107
     1.70000   175.59169   195.05983     4.39903   173.06049   191.80745     4.40097
     1.80000   175.26426   193.88981     4.39879   172.72919   191.32997     4.40086
     1.90000   174.93464   192.86986     4.39855   172.39719   190.89392     4.40075
     2.00000   174.60310   191.97330     4.39830   172.06452   190.49418     4.40062
     2.10000   174.26986   191.17927     4.39804   171.73122   190.12641     4.40049
     2.20000   173.93510   190.47132     4.39777   171.39729   189.78695     4.40034
     2.30000   173.59892   189.83626     4.39749   171.06276   189.47267     4.40019
     2.40000   173.26144   189.26345     4.39720   170.72765   189.18088     4.40003
     2.50000   172.92272   188.74419     4.39690   170.39194   188.90927     4.39986
     2.60000   172.58283   188.27131     4.39659   170.05566   188.65581     4.39968
     2.70000   172.24180   187.83886     4.39627   169.71881   188.41876     4.39949
     2.80000   171.89967   187.44185     4.39594   169.38137   188.19658     4.39930
     2.90000   171.55646   187.07607     4.39560   169.04335   187.98791     4.39909
     3.00000   171.16297   186.69186     4.39520   168.65636   187.76443     4.39885
     3.10000   170.81750   186.38163     4.39484   168.31707   187.58089     4.39863
     3.20000   170.47098   186.09304     4.39447   167.97719   187.40754     4.39839
     3.30000   170.07374   185.78701     4.39403   167.58804   187.22085     4.39812
     3.40000   169.72498   185.53767     4.39364   167.24684   187.06669     4.39787
     3.50000   169.37517   185.30391     4.39324   166.90502   186.92043     4.39762
     3.60000   168.97414   185.05411     4.39278   166.51361   186.76215     4.39732
     3.70000   168.62205   184.84908     4.39236   166.17041   186.63088     4.39705
     3.80000   168.21839   184.62898     4.39187   165.77740   186.48842     4.39673
     3.90000   167.81330   184.42255     4.39137   165.38352   186.35345     4.39640
     4.00000   167.45761   184.25202     4.39092   165.03810   186.24105     4.39610
     4.10000   167.04979   184.06786     4.39040   164.64252   186.11862     4.39576
     4.20000   166.64047   183.89409     4.38987   164.24602   186.00218     4.39541
     4.30000   166.22965   183.72979     4.38933   163.84857   185.89129     4.39504
     4.40000   165.81728   183.57418     4.38877   163.45016   185.78557     4.39467
     4.50000   165.40335   183.42655     4.38821   163.05077   185.68467     4.39429
     4.60000   164.93584   183.26928     4.38757   162.60032   185.57651     4.39386
     4.70000   164.51850   183.13656     4.38698   162.19880   185.48481     4.39346
     4.80000   164.09951   183.01004     4.38639   161.79625   185.39702     4.39306
     4.90000   163.62622   182.87460     4.38571   161.34218   185.30260     4.39260
     5.00000   163.15079   182.74583     4.38502   160.88676   185.21250     4.39213
     5.10000   162.72627   182.63648     4.38440   160.48076   185.13579     4.39170
     5.20000   162.24667   182.51891     4.38369   160.02275   185.05306     4.39122
     5.30000   161.76481   182.40664     4.38297   159.56334   184.97387     4.39073
     5.40000   161.22679   182.28767     4.38216   159.05126   184.88976     4.39017
     5.50000   160.74006   182.18532     4.38143   158.58882   184.81734     4.38967
     5.60000   160.19655   182.07655     4.38060   158.07334   184.74026     4.38910
     5.70000   159.65008   181.97255     4.37976   157.55603   184.66653     4.38852
     5.80000   159.10061   181.87298     4.37892   157.03688   184.59592     4.38794
     5.90000   158.54810   181.77751     4.37806   156.51588   184.52825     4.38735
     6.00000   157.93687   181.67692     4.37712   155.94064   184.45699     4.38670
     6.10000   157.32187   181.58059     4.37617   155.36312   184.38882     4.38604
     6.20000   156.70307   181.48820     4.37521   154.78329   184.32356     4.38538
     6.30000   156.02372   181.39161     4.37416   154.14815   184.25545     4.38465
     6.40000   155.33976   181.29902     4.37311   153.51023   184.19035     4.38392
     6.50000   154.65116   181.21014     4.37206   152.86952   184.12805     4.38319
     6.60000   153.84206   181.11085     4.37083   152.11860   184.05866     4.38234
     6.70000   153.02661   181.01584     4.36961   151.36388   183.99257     4.38149
     6.80000   152.20479   180.92477     4.36840   150.60537   183.92953     4.38064
     6.90000   151.25794   180.82519     4.36702   149.73397   183.86093     4.37968
     7.00000   150.24296   180.72416     4.36559   148.80280   183.79175     4.37866
     7.10000    88.50521   178.09571     4.36003    91.49479   181.90429     4.36003
     7.20000    88.50534   178.09585     4.35999    91.49466   181.90415     4.35999
     7.30000    88.50546   178.09600     4.35994    91.49454   181.90400     4.35994
     7.40000    88.50559   178.09614     4.35990    91.49441   181.90386     4.35990
     7.50000    88.50572   178.09629     4.35986    91.49428   181.90371     4.35986
     7.60000    88.50584   178.09643     4.35981    91.49416   181.90357     4.35981
     7.70000    88.50597   178.09658     4.35977    91.49403   181.90342     4.35977
     7.80000    88.50610   178.09673     4.35973    91.49390   181.90327     4.35973
     7.90000    88.50622   178.09687     4.35968    91.49378   181.90313     4.35968
     8.00000    88.50635   178.09702     4.35964    91.49365   181.90298     4.35964
     8.10000    88.50648   178.09716     4.35960    91.49352   181.90284     4.35960
     8.20000    88.50660   178.09731     4.35955    91.49340   181.90269     4.35955
     8.30000    88.50673   178.09745     4.35951    91.49327   181.90255     4.35951
     8.40000    88.50686   178.09760     4.35946    91.49314   181.90240     4.35946
     8.50000    88.50698   178.09774     4.35942    91.49302   181.90226     4.35942
     8.60000    88.50711   178.09789     4.35938    91.49289   181.90211     4.35938
     8.70000    88.50724   178.09803     4.35933    91.49276   181.90197     4.35933
     8.80000    88.50736   178.09818     4.35929    91.49264   181.90182     4.35929
     8.90000    88.50749   178.09832     4.35925    91.49251   181.90168     4.35925
     9.00000    88.50761   178.09846     4.35920    91.49239   181.90154     4.35920
     9.10000    88.50774   178.09861     4.35916    91.49226   181.90139     4.35916
     9.20000    88.50786   178.09875     4.35912    91.49214   181.90125     4.35912
     9.30000    88.50799   178.09890     4.35907    91.49201   181.90110     4.35907
     9.40000    88.50812   178.09904     4.35903    91.49188   181.90096     4.35903
     9.50000    88.50824   178.09919     4.35899    91.49176   181.90081     4.35899
     9.60000    88.50837   178.09933     4.35894    91.49163   181.90067     4.35894
     9.70000    88.50849   178.09948     4.35890    91.49151   181.90052     4.35890
     9.80000    88.50862   178.09962     4.35885    91.49138   181.90038     4.35885
     9.90000    88.50874   178.09976     4.35881    91.49126   181.90024     4.35881
    10.00000    88.50887   178.09991     4.35877    91.49113   181.90009     4.35877
    10.10000    88.50899   178.10005     4.35872    91.49101   181.89995     4.35872
    10.20000    88.50912   178.10020     4.35868    91.49088   181.89980     4.35868
    10.30000    88.50925   178.10034     4.35864    91.49075   181.89966     4.35864
    10.40000    88.50937   178.10048     4.35859    91.49063   181.89952     4.35859
    10.50000    88.50950   178.10063     4.35855    91.49050   181.89937     4.35855
    10.60000    88.50962   178.10077     4.35851    91.49038   181.89923     4.35851
    10.70000    88.50975   178.10091     4.35846    91.49025   181.89909     4.35846
    10.80000    88.50987   178.10106     4.35842    91.49013   181.89894     4.35842
    10.90000    88.51000   178.10120     4.35837    91.49000   181.89880     4.35837
    11.00000    88.51012   178.10134     4.35833    91.48988   181.89866     4.35833
    11.10000    88.51024   178.10149     4.35829    91.48976   181.89851     4.35829
    11.20000    88.51037   178.10163     4.35824    91.48963   181.89837     4.35824
    11.30000    88.51049   178.10177     4.35820    91.48951   181.89823     4.35820
    11.40000    88.51062   178.10192     4.35816    91.48938   181.89808     4.35816
    11.50000    88.51074   178.10206     4.35811    91.48926   181.89794     4.35811
    11.60000    88.51087   178.10220     4.35807    91.48913   181.89780     4.35807
    11.70000    88.51099   178.10234     4.35803    91.48901   181.89766     4.35803
    11.80000    88.51112   178.10249     4.35798    91.48888   181.89751     4.35798
    11.90000    88.51124   178.10263     4.35794    91.48876   181.89737     4.35794
    12.00000    88.51136   178.10277     4.35789    91.48864   181.89723     4.35789
    12.10000    88.51149   178.10292     4.35785    91.48851   181.89708     4.35785
    12.20000    88.51161   178.10306     4.35781    91.48839   181.89694     4.35781
    12.30000    88.51174   178.10320     4.35776    91.48826   181.89680     4.35776
    12.40000    88.51186   178.10334     4.35772    91.48814   181.89666     4.35772
    12.50000    88.51198   178.10348     4.35768    91.48802   181.89652     4.35768
    12.60000    88.51211   178.10363     4.35763    91.48789   181.89637     4.35763
    12.70000    88.51223   178.10377     4.35759    91.48777   181.89623     4.35759
    12.80000    88.51236   178.10391     4.35754    91.48764   181.89609     4.35754
    12.90000    88.51248   178.10405     4.35750    91.48752   181.89595     4.35750
    13.00000    88.51260   178.10420     4.35746    91.48740   181.89580     4.35746
    13.10000    88.51273   178.10434     4.35741    91.48727   181.89566     4.35741
    13.20000    88.51285   178.10448     4.35737    91.48715   181.89552     4.35737
    13.30000    88.51297   178.10462     4.35732    91.48703   181.89538     4.35732
    13.40000    88.51310   178.10476     4.35728    91.48690   181.89524     4.35728
    13.50000    88.51322   178.10490     4.35724    91.48678   181.89510     4.35724
    13.60000    88.51334   178.10505     4.35719    91.48666   181.89495     4.35719
    13.70000    88.51347   178.10519     4.35715    91.48653   181.89481     4.35715
    13.80000    88.51359   178.10533     4.35711    91.48641   181.89467     4.35711
    13.90000    88.51371   178.10547     4.35706    91.48629   181.89453     4.35706
    14.00000    88.51384   178.10561     4.35702    91.48616   181.89439     4.35702
    14.10000    88.51396   178.10575     4.35697    91.48604   181.89425     4.35697
    14.20000    88.51408   178.10589     4.35693    91.48592   181.89411     4.35693
    14.30000    88.51420   178.10603     4.35689    91.48580   181.89397     4.35689
    14.40000    88.51433   178.10618     4.35684    91.48567   181.89382     4.35684
    14.50000    88.51445   178.10632     4.35680    91.48555   181.89368     4.35680
    14.60000    88.51457   178.10646     4.35675    91.48543   181.89354     4.35675
    14.70000    88.51469   178.10660     4.35671    91.48531   181.89340     4.35671
    14.80000    88.51482   178.10674     4.35667    91.48518   181.89326     4.35667
    14.90000    88.51494   178.10688     4.35662    91.48506   181.89312     4.35662
    15.00000    88.51506   178.10702     4.35658    91.48494   181.89298     4.35658
    15.10000    88.51518   178.10716     4.35654    91.48482   181.89284     4.35654
    15.20000    88.51531   178.10730     4.35649    91.48469   181.89270     4.35649
    15.30000    88.51543   178.10744     4.35645    91.48457   181.89256     4.35645
    15.40000    88.51555   178.10758     4.35640    91.48445   181.89242     4.35640
    15.50000    88.51567   178.10772     4.35636    91.48433   181.89228     4.35636
    15.60000    88.51580   178.10786     4.35632    91.48420   181.89214     4.35632
    15.70000    88.51592   178.10800     4.35627    91.48408   181.89200     4.35627
    15.80000    88.51604   178.10814     4.35623    91.48396   181.89186     4.35623
    15.90000    88.51616   178.10828     4.35618    91.48384   181.89172     4.35618
    16.00000    88.51628   178.10842     4.35614    91.48372   181.89158     4.35614
    16.10000    88.51640   178.10856     4.35610    91.48360   181.89144     4.35610
    16.20000    88.51653   178.10870     4.35605    91.48347   181.89130     4.35605
    16.30000    88.51665   178.10884     4.35601    91.48335   181.89116     4.35601
    16.40000    88.51677   178.10898     4.35596    91.48323   181.89102     4.35596
    16.50000    88.51689   178.10912     4.35592    91.48311   181.89088     4.35592
    16.60000    88.51701   178.10926     4.35588    91.48299   181.89074     4.35588
    16.70000    88.51713   178.10940     4.35583    91.48287   181.89060     4.35583
    16.80000    88.51726   178.10954     4.35579    91.48274   181.89046     4.35579
    16.90000    88.51738   178.10968     4.35574    91.48262   181.89032     4.35574
    17.00000    88.51750   178.10982     4.35570    91.48250   181.89018     4.35570
    17.10000    88.51762   178.10996     4.35566    91.48238   181.89004     4.35566
    17.20000    88.51774   178.11010     4.35561    91.48226   181.88990     4.35561
    17.30000    88.51786   178.11024     4.35557    91.48214   181.88976     4.35557
    17.40000    88.51798   178.11038     4.35552    91.48202   181.88962     4.35552
    17.50000    88.51810   178.11052     4.35548    91.48190   181.88948     4.35548
    17.60000    88.51822   178.11065     4.35544    91.48178   181.88935     4.35544
    17.70000    88.51834   178.11079     4.35539    91.48166   181.88921     4.35539
    17.80000    88.51847   178.11093     4.35535    91.48153   181.88907     4.35535
    17.90000    88.51859   178.11107     4.35530    91.48141   181.88893     4.35530
    18.00000    88.51871   178.11121     4.35526    91.48129   181.88879     4.35526
    18.10000    88.51883   178.11135     4.35522    91.48117   181.88865     4.35522
    18.20000    88.51895   178.11149     4.35517    91.48105   181.88851     4.35517
    18.30000    88.51907   178.11163     4.35513    91.48093   181.88837     4.35513
    18.40000    88.51919   178.11176     4.35508    91.48081   181.88824     4.35508
    18.50000    88.51931   178.11190     4.35504    91.48069   181.88810     4.35504
    18.60000    88.51943   178.11204     4.35500    91.48057   181.88796     4.35500
    18.70000    88.51955   178.11218     4.35495    91.48045   181.88782     4.35495
    18.80000    88.51967   178.11232     4.35491    91.48033   181.88768     4.35491
    18.90000    88.51979   178.11246     4.35486    91.48021   181.88754     4.35486
    19.00000    88.51991   178.11259     4.35482    91.48009   181.88741     4.35482
    19.10000    88.52003   178.11273     4.35477    91.47997   181.88727     4.35477
    19.20000    88.52015   178.11287     4.35473    91.47985   181.88713     4.35473
    19.30000    88.52027   178.11301     4.35469    91.47973   181.88699     4.35469
    19.40000    88.52039   178.11314     4.35464    91.47961   181.88686     4.35464
    19.50000    88.52051   178.11328     4.35460    91.47949   181.88672     4.35460
    19.60000    88.52063   178.11342     4.35455    91.47937   181.88658     4.35455
    19.70000    88.52075   178.11356     4.35451    91.47925   181.88644     4.35451
    19.80000    88.52087   178.11370     4.35447    91.47913   181.88630     4.35447
    19.90000    88.52099   178.11383     4.35442    91.47901   181.88617     4.35442
    20.00000    88.52111   178.11397     4.35438    91.47889   181.88603     4.35438
    20.10000    88.52123   178.11411     4.35433    91.47877   181.88589     4.35433
    20.20000    88.52135   178.11424     4.35429    91.47865   181.88576     4.35429
    20.30000    88.52147   178.11438     4.35424    91.47853   181.88562     4.35424
    20.40000    88.52159   178.11452     4.35420    91.47841   181.88548     4.35420
    20.50000    88.52170   178.11466     4.35416    91.47830   181.88534     4.35416
    20.60000    88.52182   178.11479     4.35411    91.47818   181.88521     4.35411
    20.70000    88.52194   178.11493     4.35407    91.47806   181.88507     4.35407
    20.80000    88.52206   178.11507     4.35402    91.47794   181.88493     4.35402
    20.90000    88.52218   178.11520     4.35398    91.47782   181.88480     4.35398
    21.00000    88.52230   178.11534     4.35393    91.47770   181.88466     4.35393
    21.10000    88.52242   178.11548     4.35389    91.47758   181.88452     4.35389
    21.20000    88.52254   178.11561     4.35385    91.47746   181.88439     4.35385
    21.30000    88.52266   178.11575     4.35380    91.47734   181.88425     4.35380
    21.40000    88.52277   178.11589     4.35376    91.47723   181.88411     4.35376
    21.50000    88.52289   178.11602     4.35371    91.47711   181.88398     4.35371
    21.60000    88.52301   178.11616     4.35367    91.47699   181.88384     4.35367
    21.70000    88.52313   178.11630     4.35363    91.47687   181.88370     4.35363
    21.80000    88.52325   178.11643     4.35358    91.47675   181.88357     4.35358
    21.90000    88.52337   178.11657     4.35354    91.47663   181.88343     4.35354
    22.00000    88.52349   178.11670     4.35349    91.47651   181.88330     4.35349
    22.10000    88.52360   178.11684     4.35345    91.47640   181.88316     4.35345
    22.20000    88.52372   178.11698     4.35340    91.47628   181.88302     4.35340
    22.30000    88.52384   178.11711     4.35336    91.47616   181.88289     4.35336
    22.40000    88.52396   178.11725     4.35332    91.47604   181.88275     4.35332
    22.50000    88.52408   178.11738     4.35327    91.47592   181.88262     4.35327
    22.60000    88.52419   178.11752     4.35323    91.47581   181.88248     4.35323
    22.70000    88.52431   178.11766     4.35318    91.47569   181.88234     4.35318
    22.80000    88.52443   178.11779     4.35314    91.47557   181.88221     4.35314
    22.90000    88.52455   178.11793     4.35309    91.47545   181.88207     4.35309
    23.00000    88.52467   178.11806     4.35305    91.47533   181.88194     4.35305
    23.10000    88.52478   178.11820     4.35300    91.47522   181.88180     4.35300
    23.20000    88.52490   178.11833     4.35296    91.47510   181.88167     4.35296
    23.30000    88.52502   178.11847     4.35292    91.47498   181.88153     4.35292
    23.40000    88.52514   178.11860     4.35287    91.47486   181.88140     4.35287
    23.50000    88.52525   178.11874     4.35283    91.47475   181.88126     4.35283
    23.60000    88.52537   178.11887     4.35278    91.47463   181.88113     4.35278
    23.70000    88.52549   178.11901     4.35274    91.47451   181.88099     4.35274
    23.80000    88.52561   178.11914     4.35269    91.47439   181.88086     4.35269
    23.90000    88.52572   178.11928     4.35265    91.47428   181.88072     4.35265
    24.00000    88.52584   178.11941     4.35261    91.47416   181.88059     4.35261
    24.10000    88.52596   178.11955     4.35256    91.47404   181.88045     4.35256
    24.20000    88.52608   178.11968     4.35252    91.47392   181.88032     4.35252
    24.30000    88.52619   178.11982     4.35247    91.47381   181.88018     4.35247
    24.40000    88.52631   178.11995     4.35243    91.47369   181.88005     4.35243
    24.50000    88.52643   178.12009     4.35238    91.47357   181.87991     4.35238
    24.60000    88.52654   178.12022     4.35234    91.47346   181.87978     4.35234
    24.70000    88.52666   178.12036     4.35229    91.47334   181.87964     4.35229
    24.80000    88.52678   178.12049     4.35225    91.47322   181.87951     4.35225
    24.90000    88.52689   178.12062     4.35221    91.47311   181.87938     4.35221
    25.00000    88.52701   178.12076     4.35216    91.47299   181.87924     4.35216
    25.10000    88.52713   178.12089     4.35212    91.47287   181.87911     4.35212
    25.20000    88.52724   178.12103     4.35207    91.47276   181.87897     4.35207
    25.30000    88.52736   178.12116     4.35203    91.47264   181.87884     4.35203
    25.40000    88.52748   178.12130     4.35198    91.47252   181.87870     4.35198
    25.50000    88.52759   178.12143     4.35194    91.47241   181.87857     4.35194
    25.60000    88.52771   178.12156     4.35189    91.47229   181.87844     4.35189
    25.70000    88.52783   178.12170     4.35185    91.47217   181.87830     4.35185
    25.80000    88.52794   178.12183     4.35181    91.47206   181.87817     4.35181
    25.90000    88.52806   178.12196     4.35176    91.47194   181.87804     4.35176
    26.00000    88.52817   178.12210     4.35172    91.47183   181.87790     4.35172
    26.10000    88.52829   178.12223     4.35167    91.47171   181.87777     4.35167
    26.20000    88.52841   178.12236     4.35163    91.47159   181.87764     4.35163
    26.30000    88.52852   178.12250     4.35158    91.47148   181.87750     4.35158
    26.40000    88.52864   178.12263     4.35154    91.47136   181.87737     4.35154
    26.50000    88.52875   178.12276     4.35149    91.47125   181.87724     4.35149
    26.60000    88.52887   178.12290     4.35145    91.47113   181.87710     4.35145
    26.70000    88.52899   178.12303     4.35140    91.47101   181.87697     4.35140
    26.80000    88.52910   178.12316     4.35136    91.47090   181.87684     4.35136
    26.90000    88.52922   178.12330     4.35132    91.47078   181.87670     4.35132
    27.00000    88.52933   178.12343     4.35127    91.47067   181.87657     4.35127
    27.10000    88.52945   178.12356     4.35123    91.47055   181.87644     4.35123
    27.20000    88.52956   178.12370     4.35118    91.47044   181.87630     4.35118
    27.30000    88.52968   178.12383     4.35114    91.47032   181.87617     4.35114
    27.40000    88.52979   178.12396     4.35109    91.47021   181.87604     4.35109
    27.50000    88.52991   178.12409     4.35105    91.47009   181.87591     4.35105
    27.60000    88.53002   178.12423     4.35100    91.46998   181.87577     4.35100
    27.70000    88.53014   178.12436     4.35096    91.46986   181.87564     4.35096
    27.80000    88.53025   178.12449     4.35091    91.46975   181.87551     4.35091
    27.90000    88.53037   178.12462     4.35087    91.46963   181.87538     4.35087
    28.00000    88.53048   178.12476     4.35082    91.46952   181.87524     4.35082
    28.10000    88.53060   178.12489     4.35078    91.46940   181.87511     4.35078
    28.20000    88.53071   178.12502     4.35074    91.46929   181.87498     4.35074
    28.30000    88.53083   178.12515     4.35069    91.46917   181.87485     4.35069
    28.40000    88.53094   178.12528     4.35065    91.46906   181.87472     4.35065
    28.50000    88.53106   178.12542     4.35060    91.46894   181.87458     4.35060
    28.60000    88.53117   178.12555     4.35056    91.46883   181.87445     4.35056
    28.70000    88.53129   178.12568     4.35051    91.46871   181.87432     4.35051
    28.80000    88.53140   178.12581     4.35047    91.46860   181.87419     4.35047
    28.90000    88.53152   178.12594     4.35042    91.46848   181.87406     4.35042
    29.00000    88.53163   178.12608     4.35038    91.46837   181.87392     4.35038
    29.10000    88.53175   178.12621     4.35033    91.46825   181.87379     4.35033
    29.20000    88.53186   178.12634     4.35029    91.46814   181.87366     4.35029
    29.30000    88.53197   178.12647     4.35024    91.46803   181.87353     4.35024
    29.40000    88.53209   178.12660     4.35020    91.46791   181.87340     4.35020
    29.50000    88.53220   178.12673     4.35015    91.46780   181.87327     4.35015
    29.60000    88.53232   178.12686     4.35011    91.46768   181.87314     4.35011
    29.70000    88.53243   178.12700     4.35006    91.46757   181.87300     4.35006
    29.80000    88.53254   178.12713     4.35002    91.46746   181.87287     4.35002
    29.90000    88.53266   178.12726     4.34998    91.46734   181.87274     4.34998
    30.00000    88.53277   178.12739     4.34993    91.46723   181.87261     4.34993
    30.10000    88.53289   178.12752     4.34989    91.46711   181.87248     4.34989
    30.20000    88.53300   178.12765     4.34984    91.46700   181.87235     4.34984
    30.30000    88.53311   178.12778     4.34980    91.46689   181.87222     4.34980
    30.40000    88.53323   178.12791     4.34975    91.46677   181.87209     4.34975
    30.50000    88.53334   178.12804     4.34971    91.46666   181.87196     4.34971
    30.60000    88.53345   178.12817     4.34966    91.46655   181.87183     4.34966
    30.70000    88.53357   178.12831     4.34962    91.46643   181.87169     4.34962
    30.80000    88.53368   178.12844     4.34957    91.46632   181.87156     4.34957
    30.90000    88.53379   178.12857     4.34953    91.46621   181.87143     4.34953
    31.00000    88.53391   178.12870     4.34948    91.46609   181.87130     4.34948
    31.10000    88.53402   178.12883     4.34944    91.46598   181.87117     4.34944
    31.20000    88.53413   178.12896     4.34939    91.46587   181.87104     4.34939
    31.30000    88.53425   178.12909     4.34935    91.46575   181.87091     4.34935
    31.40000    88.53436   178.12922     4.34930    91.46564   181.87078     4.34930
    31.50000    88.53447   178.12935     4.34926    91.46553   181.87065     4.34926
    31.60000    88.53459   178.12948     4.34921    91.46541   181.87052     4.34921
    31.70000    88.53470   178.12961     4.34917    91.46530   181.87039     4.34917
    31.80000    88.53481   178.12974     4.34912    91.46519   181.87026     4.34912
    31.90000    88.53493   178.12987     4.34908    91.46507   181.87013     4.34908
    32.00000    88.53504   178.13000     4.34903    91.46496   181.87000     4.34903
    32.10000    88.53515   178.13013     4.34899    91.46485   181.86987     4.34899
    32.20000    88.53526   178.13026     4.34894    91.46474   181.86974     4.34894
    32.30000    88.53538   178.13039     4.34890    91.46462   181.86961     4.34890
    32.40000    88.53549   178.13052     4.34885    91.46451   181.86948     4.34885
    32.50000    88.53560   178.13065     4.34881    91.46440   181.86935     4.34881
    32.60000    88.53571   178.13078     4.34877    91.46429   181.86922     4.34877
    32.70000    88.53583   178.13091     4.34872    91.46417   181.86909     4.34872
    32.80000    88.53594   178.13104     4.34868    91.46406   181.86896     4.34868
    32.90000    88.53605   178.13116     4.34863    91.46395   181.86884     4.34863
    33.00000    88.53616   178.13129     4.34859    91.46384   181.86871     4.34859
    33.10000    88.53627   178.13142     4.34854    91.46373   181.86858     4.34854
    33.20000    88.53639   178.13155     4.34850    91.46361   181.86845     4.34850
    33.30000    88.53650   178.13168     4.34845    91.46350   181.86832     4.34845
    33.40000    88.53661   178.13181     4.34841    91.46339   181.86819     4.34841
    33.50000    88.53672   178.13194     4.34836    91.46328   181.86806     4.34836
    33.60000    88.53683   178.13207     4.34832    91.46317   181.86793     4.34832
    33.70000    88.53695   178.13220     4.34827    91.46305   181.86780     4.34827
    33.80000    88.53706   178.13233     4.34823    91.46294   181.86767     4.34823
    33.90000    88.53717   178.13245     4.34818    91.46283   181.86755     4.34818
    34.00000    88.53728   178.13258     4.34814    91.46272   181.86742     4.34814
    34.10000    88.53739   178.13271     4.34809    91.46261   181.86729     4.34809
    34.20000    88.53751   178.13284     4.34805    91.46249   181.86716     4.34805
    34.30000    88.53762   178.13297     4.34800    91.46238   181.86703     4.34800
    34.40000    88.53773   178.13310     4.34796    91.46227   181.86690     4.34796
    34.50000    88.53784   178.13322     4.34791    91.46216   181.86678     4.34791
    34.60000    88.53795   178.13335     4.34787    91.46205   181.86665     4.34787
    34.70000    88.53806   178.13348     4.34782    91.46194   181.86652     4.34782
    34.80000    88.53817   178.13361     4.34778    91.46183   181.86639     4.34778
    34.90000    88.53828   178.13374     4.34773    91.46172   181.86626     4.34773
    35.00000    88.53840   178.13387     4.34769    91.46160   181.86613     4.34769
    35.10000    88.53851   178.13399     4.34764    91.46149   181.86601     4.34764
    35.20000    88.53862   178.13412     4.34760    91.46138   181.86588     4.34760
    35.30000    88.53873   178.13425     4.34755    91.46127   181.86575     4.34755
    35.40000    88.53884   178.13438     4.34751    91.46116   181.86562     4.34751
    35.50000    88.53895   178.13450     4.34746    91.46105   181.86550     4.34746
    35.60000    88.53906   178.13463     4.34742    91.46094   181.86537     4.34742
    35.70000    88.53917   178.13476     4.34737    91.46083   181.86524     4.34737
    35.80000    88.53928   178.13489     4.34733    91.46072   181.86511     4.34733
    35.90000    88.53939   178.13502     4.34728    91.46061   181.86498     4.34728
    36.00000    88.53950   178.13514     4.34724    91.46050   181.86486     4.34724
    36.10000    88.53961   178.13527     4.34719    91.46039   181.86473     4.34719
    36.20000    88.53973   178.13540     4.34715    91.46027   181.86460     4.34715
    36.30000    88.53984   178.13552     4.34710    91.46016   181.86448     4.34710
    36.40000    88.53995   178.13565     4.34705    91.46005   181.86435     4.34705
    36.50000    88.54006   178.13578     4.34701    91.45994   181.86422     4.34701
    36.60000    88.54017   178.13591     4.34696    91.45983   181.86409     4.34696
    36.70000    88.54028   178.13603     4.34692    91.45972   181.86397     4.34692
    36.80000    88.54039   178.13616     4.34687    91.45961   181.86384     4.34687
    36.90000    88.54050   178.13629     4.34683    91.45950   181.86371     4.34683
    37.00000    88.54061   178.13641     4.34678    91.45939   181.86359     4.34678
    37.10000    88.54072   178.13654     4.34674    91.45928   181.86346     4.34674
    37.20000    88.54083   178.13667     4.34669    91.45917   181.86333     4.34669
    37.30000    88.54094   178.13679     4.34665    91.45906   181.86321     4.34665
    37.40000    88.54105   178.13692     4.34660    91.45895   181.86308     4.34660
    37.50000    88.54116   178.13705     4.34656    91.45884   181.86295     4.34656
    37.60000    88.54127   178.13717     4.34651    91.45873   181.86283     4.34651
    37.70000    88.54138   178.13730     4.34647    91.45862   181.86270     4.34647
    37.80000    88.54149   178.13743     4.34642    91.45851   181.86257     4.34642
    37.90000    88.54160   178.13755     4.34638    91.45840   181.86245     4.34638
    38.00000    88.54171   178.13768     4.34633    91.45829   181.86232     4.34633
    38.10000    88.54181   178.13780     4.34629    91.45819   181.86220     4.34629
    38.20000    88.54192   178.13793     4.34624    91.45808   181.86207     4.34624
    38.30000    88.54203   178.13806     4.34620    91.45797   181.86194     4.34620
    38.40000    88.54214   178.13818     4.34615    91.45786   181.86182     4.34615
    38.50000    88.54225   178.13831     4.34611    91.45775   181.86169     4.34611
    38.60000    88.54236   178.13843     4.34606    91.45764   181.86157     4.34606
    38.70000    88.54247   178.13856     4.34602    91.45753   181.86144     4.34602
    38.80000    88.54258   178.13869     4.34597    91.45742   181.86131     4.34597
    38.90000    88.54269   178.13881     4.34593    91.45731   181.86119     4.34593
    39.00000    88.54280   178.13894     4.34588    91.45720   181.86106     4.34588
    39.10000    88.54291   178.13906     4.34583    91.45709   181.86094     4.34583
    39.20000    88.54302   178.13919     4.34579    91.45698   181.86081     4.34579
    39.30000    88.54312   178.13931     4.34574    91.45688   181.86069     4.34574
    39.40000    88.54323   178.13944     4.34570    91.45677   181.86056     4.34570
    39.50000    88.54334   178.13956     4.34565    91.45666   181.86044     4.34565
    39.60000    88.54345   178.13969     4.34561    91.45655   181.86031     4.34561
    39.70000    88.54356   178.13981     4.34556    91.45644   181.86019     4.34556
    39.80000    88.54367   178.13994     4.34552    91.45633   181.86006     4.34552
    39.90000    88.54378   178.14006     4.34547    91.45622   181.85994     4.34547
    40.00000    88.54388   178.14019     4.34543    91.45612   181.85981     4.34543
