 # applied field (T), theta (degree), phi (degree), abs for RE 3-4
     0.00000   177.27601   135.00000     0.09707   177.27601    45.00000     0.09707
     0.10000   176.09214   153.37017     0.09699   177.86234    80.23887     0.09701
     0.20000   174.70418   162.68259     0.09696   177.41591   117.72794     0.09699
     0.30000   173.24168   168.03957     0.09696   176.29296   138.26032     0.09702
     0.40000   171.74962   171.46665     0.09701   174.92676   148.53109     0.09709
     0.50000   170.16118   173.94349     0.09711   173.38782   154.58159     0.09721
     0.60000   168.65852   175.64668     0.09724   171.89562   158.13723     0.09736
     0.70000   167.16157   176.94866     0.09740   170.38995   160.56693     0.09755
     0.80000   165.58940   178.02638     0.09762   168.79543   162.41281     0.09780
     0.90000   164.03115   178.89112     0.09788   167.20479   163.78468     0.09809
     1.00000   162.57234   179.56892     0.09816   165.70780   164.78692     0.09840
     1.10000   161.04780   180.16978     0.09849   164.13701   165.63249     0.09876
     1.20000   159.46215   180.70500     0.09887   162.49703   166.35064     0.09919
     1.30000   157.97964   181.14407     0.09927   160.95786   166.90552     0.09962
     1.40000   156.44072   181.54626     0.09971   159.35515   167.39314     0.10011
     1.50000   154.92722   181.90033     0.10019   157.77391   167.80108     0.10064
     1.60000   153.43980   182.21549     0.10069   156.21530   168.14604     0.10119
     1.70000   151.90448   182.51110     0.10123   154.60219   168.45588     0.10181
     1.80000   150.39877   182.77801     0.10180   153.01577   168.72029     0.10244
     1.90000   148.92280   183.02116     0.10239   151.45648   168.94747     0.10310
     2.00000   147.40652   183.25373     0.10301   149.85061   169.15398     0.10382
     2.10000   145.92272   183.46825     0.10365   148.27485   169.33214     0.10454
     2.20000   144.40406   183.67552     0.10433   146.65789   169.49430     0.10532
     2.30000   142.85469   183.87635     0.10503   145.00360   169.64130     0.10615
     2.40000   141.34238   184.06476     0.10574   143.38374   169.76804     0.10698
     2.50000   139.80409   184.24930     0.10647   141.73065   169.88288     0.10785
     2.60000   138.18299   184.43686     0.10725   139.98229   169.99101     0.10879
     2.70000   136.60534   184.61567     0.10801   138.27314   170.08349     0.10972
     2.80000   135.01234   184.79301     0.10878   136.53890   170.16624     0.11068
     2.90000   133.35148   184.97508     0.10958   134.72066   170.24307     0.11169
     3.00000   131.68442   185.15692     0.11037   132.88331   170.31101     0.11271
     3.10000   129.96117   185.34450     0.11117   130.96943   170.37334     0.11377
     3.20000   128.13780   185.54324     0.11200   128.92622   170.43219     0.11488
     3.30000   126.27382   185.74825     0.11282   126.81563   170.48559     0.11599
     3.40000   124.27864   185.96940     0.11368   124.53056   170.53744     0.11715
     3.50000   122.16314   186.20585     0.11456   122.07756   170.58800     0.11834
     3.60000   119.84470   186.46521     0.11550   119.35642   170.64085     0.11957
     3.70000   117.28681   186.74799     0.11653   116.32233   170.69892     0.12083
     3.80000   114.22966   187.07027     0.11778   112.67777   170.77282     0.12216
     3.90000   110.26589   187.44322     0.11945   107.98767   170.88237     0.12362
     4.00000   104.20816   187.88133     0.12211   101.05010   171.09103     0.12530
     4.10000    91.89117   188.31754     0.12729    88.10883   171.68246     0.12729
     4.20000    91.89272   188.32435     0.12717    88.10728   171.67565     0.12717
     4.30000    91.89426   188.33118     0.12704    88.10574   171.66882     0.12704
     4.40000    91.89581   188.33802     0.12691    88.10419   171.66198     0.12691
     4.50000    91.89736   188.34488     0.12679    88.10264   171.65512     0.12679
     4.60000    91.89891   188.35174     0.12666    88.10109   171.64826     0.12666
     4.70000    91.90047   188.35862     0.12654    88.09953   171.64138     0.12654
     4.80000    91.90203   188.36551     0.12641    88.09797   171.63449     0.12641
     4.90000    91.90359   188.37242     0.12629    88.09641   171.62758     0.12629
     5.00000    91.90515   188.37934     0.12616    88.09485   171.62066     0.12616
     5.10000    91.90672   188.38627     0.12604    88.09328   171.61373     0.12604
     5.20000    91.90829   188.39321     0.12591    88.09171   171.60679     0.12591
     5.30000    91.90986   188.40017     0.12579    88.09014   171.59983     0.12579
     5.40000    91.91144   188.40714     0.12566    88.08856   171.59286     0.12566
     5.50000    91.91302   188.41412     0.12554    88.08698   171.58588     0.12554
     5.60000    91.91460   188.42112     0.12541    88.08540   171.57888     0.12541
     5.70000    91.91619   188.42813     0.12529    88.08381   171.57187     0.12529
     5.80000    91.91777   188.43515     0.12516    88.08223   171.56485     0.12516
     5.90000    91.91936   188.44218     0.12504    88.08064   171.55782     0.12504
     6.00000    91.92096   188.44923     0.12491    88.07904   171.55077     0.12491
     6.10000    91.92256   188.45629     0.12478    88.07744   171.54371     0.12478
     6.20000    91.92415   188.46337     0.12466    88.07585   171.53663     0.12466
     6.30000    91.92576   188.47046     0.12453    88.07424   171.52954     0.12453
     6.40000    91.92736   188.47756     0.12441    88.07264   171.52244     0.12441
     6.50000    91.92897   188.48468     0.12428    88.07103   171.51532     0.12428
     6.60000    91.93058   188.49181     0.12416    88.06942   171.50819     0.12416
     6.70000    91.93220   188.49895     0.12403    88.06780   171.50105     0.12403
     6.80000    91.93382   188.50610     0.12391    88.06618   171.49390     0.12391
     6.90000    91.93544   188.51327     0.12378    88.06456   171.48673     0.12378
     7.00000    91.93706   188.52046     0.12366    88.06294   171.47954     0.12366
     7.10000    91.93869   188.52766     0.12353    88.06131   171.47234     0.12353
     7.20000    91.94032   188.53487     0.12341    88.05968   171.46513     0.12341
     7.30000    91.94195   188.54209     0.12328    88.05805   171.45791     0.12328
     7.40000    91.94359   188.54933     0.12316    88.05641   171.45067     0.12316
     7.50000    91.94523   188.55658     0.12303    88.05477   171.44342     0.12303
     7.60000    91.94687   188.56385     0.12291    88.05313   171.43615     0.12291
     7.70000    91.94852   188.57113     0.12278    88.05148   171.42887     0.12278
     7.80000    91.95016   188.57842     0.12266    88.04984   171.42158     0.12266
     7.90000    91.95182   188.58573     0.12253    88.04818   171.41427     0.12253
     8.00000    91.95347   188.59305     0.12241    88.04653   171.40695     0.12241
     8.10000    91.95513   188.60039     0.12228    88.04487   171.39961     0.12228
     8.20000    91.95679   188.60774     0.12216    88.04321   171.39226     0.12216
     8.30000    91.95846   188.61511     0.12203    88.04154   171.38489     0.12203
     8.40000    91.96012   188.62249     0.12191    88.03988   171.37751     0.12191
     8.50000    91.96179   188.62988     0.12178    88.03821   171.37012     0.12178
     8.60000    91.96347   188.63729     0.12166    88.03653   171.36271     0.12166
     8.70000    91.96514   188.64471     0.12153    88.03486   171.35529     0.12153
     8.80000    91.96683   188.65214     0.12141    88.03317   171.34786     0.12141
     8.90000    91.96851   188.65960     0.12128    88.03149   171.34040     0.12128
     9.00000    91.97020   188.66706     0.12116    88.02980   171.33294     0.12116
     9.10000    91.97189   188.67454     0.12103    88.02811   171.32546     0.12103
     9.20000    91.97358   188.68203     0.12091    88.02642   171.31797     0.12091
     9.30000    91.97528   188.68954     0.12079    88.02472   171.31046     0.12079
     9.40000    91.97698   188.69707     0.12066    88.02302   171.30293     0.12066
     9.50000    91.97868   188.70461     0.12054    88.02132   171.29539     0.12054
     9.60000    91.98039   188.71216     0.12041    88.01961   171.28784     0.12041
     9.70000    91.98210   188.71973     0.12029    88.01790   171.28027     0.12029
     9.80000    91.98381   188.72731     0.12016    88.01619   171.27269     0.12016
     9.90000    91.98552   188.73491     0.12004    88.01448   171.26509     0.12004
    10.00000    91.98724   188.74252     0.11991    88.01276   171.25748     0.11991
    10.10000    91.98897   188.75015     0.11979    88.01103   171.24985     0.11979
    10.20000    91.99069   188.75779     0.11966    88.00931   171.24221     0.11966
    10.30000    91.99242   188.76545     0.11954    88.00758   171.23455     0.11954
    10.40000    91.99416   188.77312     0.11941    88.00584   171.22688     0.11941
    10.50000    91.99589   188.78081     0.11929    88.00411   171.21919     0.11929
    10.60000    91.99763   188.78851     0.11916    88.00237   171.21149     0.11916
    10.70000    91.99938   188.79623     0.11904    88.00062   171.20377     0.11904
    10.80000    92.00112   188.80396     0.11892    87.99888   171.19604     0.11892
    10.90000    92.00287   188.81171     0.11879    87.99713   171.18829     0.11879
    11.00000    92.00463   188.81948     0.11867    87.99537   171.18052     0.11867
    11.10000    92.00638   188.82726     0.11854    87.99362   171.17274     0.11854
    11.20000    92.00814   188.83505     0.11842    87.99186   171.16495     0.11842
    11.30000    92.00991   188.84286     0.11829    87.99009   171.15714     0.11829
    11.40000    92.01168   188.85069     0.11817    87.98832   171.14931     0.11817
    11.50000    92.01345   188.85853     0.11804    87.98655   171.14147     0.11804
    11.60000    92.01522   188.86639     0.11792    87.98478   171.13361     0.11792
    11.70000    92.01700   188.87426     0.11779    87.98300   171.12574     0.11779
    11.80000    92.01878   188.88215     0.11767    87.98122   171.11785     0.11767
    11.90000    92.02057   188.89005     0.11755    87.97943   171.10995     0.11755
    12.00000    92.02235   188.89797     0.11742    87.97765   171.10203     0.11742
    12.10000    92.02415   188.90591     0.11730    87.97585   171.09409     0.11730
    12.20000    92.02594   188.91386     0.11717    87.97406   171.08614     0.11717
    12.30000    92.02774   188.92183     0.11705    87.97226   171.07817     0.11705
    12.40000    92.02954   188.92982     0.11692    87.97046   171.07018     0.11692
    12.50000    92.03135   188.93782     0.11680    87.96865   171.06218     0.11680
    12.60000    92.03316   188.94583     0.11667    87.96684   171.05417     0.11667
    12.70000    92.03497   188.95387     0.11655    87.96503   171.04613     0.11655
    12.80000    92.03679   188.96191     0.11643    87.96321   171.03809     0.11643
    12.90000    92.03861   188.96998     0.11630    87.96139   171.03002     0.11630
    13.00000    92.04044   188.97806     0.11618    87.95956   171.02194     0.11618
    13.10000    92.04226   188.98616     0.11605    87.95774   171.01384     0.11605
    13.20000    92.04410   188.99427     0.11593    87.95590   171.00573     0.11593
    13.30000    92.04593   189.00241     0.11580    87.95407   170.99759     0.11580
    13.40000    92.04777   189.01055     0.11568    87.95223   170.98945     0.11568
    13.50000    92.04961   189.01872     0.11556    87.95039   170.98128     0.11556
    13.60000    92.05146   189.02690     0.11543    87.94854   170.97310     0.11543
    13.70000    92.05331   189.03510     0.11531    87.94669   170.96490     0.11531
    13.80000    92.05516   189.04331     0.11518    87.94484   170.95669     0.11518
    13.90000    92.05702   189.05154     0.11506    87.94298   170.94846     0.11506
    14.00000    92.05888   189.05979     0.11494    87.94112   170.94021     0.11494
    14.10000    92.06075   189.06805     0.11481    87.93925   170.93195     0.11481
    14.20000    92.06262   189.07634     0.11469    87.93738   170.92366     0.11469
    14.30000    92.06449   189.08463     0.11456    87.93551   170.91537     0.11456
    14.40000    92.06637   189.09295     0.11444    87.93363   170.90705     0.11444
    14.50000    92.06825   189.10128     0.11431    87.93175   170.89872     0.11431
    14.60000    92.07013   189.10963     0.11419    87.92987   170.89037     0.11419
    14.70000    92.07202   189.11800     0.11407    87.92798   170.88200     0.11407
    14.80000    92.07391   189.12639     0.11394    87.92609   170.87361     0.11394
    14.90000    92.07581   189.13479     0.11382    87.92419   170.86521     0.11382
    15.00000    92.07771   189.14321     0.11369    87.92229   170.85679     0.11369
    15.10000    92.07961   189.15164     0.11357    87.92039   170.84836     0.11357
    15.20000    92.08152   189.16010     0.11345    87.91848   170.83990     0.11345
    15.30000    92.08343   189.16857     0.11332    87.91657   170.83143     0.11332
    15.40000    92.08534   189.17706     0.11320    87.91466   170.82294     0.11320
    15.50000    92.08726   189.18557     0.11307    87.91274   170.81443     0.11307
    15.60000    92.08919   189.19409     0.11295    87.91081   170.80591     0.11295
    15.70000    92.09111   189.20264     0.11283    87.90889   170.79736     0.11283
    15.80000    92.09304   189.21120     0.11270    87.90696   170.78880     0.11270
    15.90000    92.09498   189.21977     0.11258    87.90502   170.78023     0.11258
    16.00000    92.09692   189.22837     0.11245    87.90308   170.77163     0.11245
    16.10000    92.09886   189.23699     0.11233    87.90114   170.76301     0.11233
    16.20000    92.10081   189.24562     0.11221    87.89919   170.75438     0.11221
    16.30000    92.10276   189.25427     0.11208    87.89724   170.74573     0.11208
    16.40000    92.10471   189.26294     0.11196    87.89529   170.73706     0.11196
    16.50000    92.10667   189.27162     0.11184    87.89333   170.72838     0.11184
    16.60000    92.10864   189.28033     0.11171    87.89136   170.71967     0.11171
    16.70000    92.11060   189.28905     0.11159    87.88940   170.71095     0.11159
    16.80000    92.11257   189.29780     0.11146    87.88743   170.70220     0.11146
    16.90000    92.11455   189.30656     0.11134    87.88545   170.69344     0.11134
    17.00000    92.11653   189.31533     0.11122    87.88347   170.68467     0.11122
    17.10000    92.11851   189.32413     0.11109    87.88149   170.67587     0.11109
    17.20000    92.12050   189.33295     0.11097    87.87950   170.66705     0.11097
    17.30000    92.12249   189.34178     0.11084    87.87751   170.65822     0.11084
    17.40000    92.12449   189.35064     0.11072    87.87551   170.64936     0.11072
    17.50000    92.12649   189.35951     0.11060    87.87351   170.64049     0.11060
    17.60000    92.12849   189.36840     0.11047    87.87151   170.63160     0.11047
    17.70000    92.13050   189.37731     0.11035    87.86950   170.62269     0.11035
    17.80000    92.13252   189.38624     0.11023    87.86748   170.61376     0.11023
    17.90000    92.13453   189.39519     0.11010    87.86547   170.60481     0.11010
    18.00000    92.13656   189.40416     0.10998    87.86344   170.59584     0.10998
    18.10000    92.13858   189.41315     0.10986    87.86142   170.58685     0.10986
    18.20000    92.14061   189.42215     0.10973    87.85939   170.57785     0.10973
    18.30000    92.14265   189.43118     0.10961    87.85735   170.56882     0.10961
    18.40000    92.14468   189.44022     0.10948    87.85532   170.55978     0.10948
    18.50000    92.14673   189.44929     0.10936    87.85327   170.55071     0.10936
    18.60000    92.14878   189.45837     0.10924    87.85122   170.54163     0.10924
    18.70000    92.15083   189.46747     0.10911    87.84917   170.53253     0.10911
    18.80000    92.15288   189.47660     0.10899    87.84712   170.52340     0.10899
    18.90000    92.15494   189.48574     0.10887    87.84506   170.51426     0.10887
    19.00000    92.15701   189.49490     0.10874    87.84299   170.50510     0.10874
    19.10000    92.15908   189.50408     0.10862    87.84092   170.49592     0.10862
    19.20000    92.16115   189.51329     0.10850    87.83885   170.48671     0.10850
    19.30000    92.16323   189.52251     0.10837    87.83677   170.47749     0.10837
    19.40000    92.16531   189.53175     0.10825    87.83469   170.46825     0.10825
    19.50000    92.16740   189.54101     0.10813    87.83260   170.45899     0.10813
    19.60000    92.16949   189.55030     0.10800    87.83051   170.44970     0.10800
    19.70000    92.17159   189.55960     0.10788    87.82841   170.44040     0.10788
    19.80000    92.17369   189.56892     0.10776    87.82631   170.43108     0.10776
    19.90000    92.17579   189.57827     0.10763    87.82421   170.42173     0.10763
    20.00000    92.17790   189.58763     0.10751    87.82210   170.41237     0.10751
    20.10000    92.18002   189.59701     0.10739    87.81998   170.40299     0.10739
    20.20000    92.18213   189.60642     0.10726    87.81787   170.39358     0.10726
    20.30000    92.18426   189.61584     0.10714    87.81574   170.38416     0.10714
    20.40000    92.18639   189.62529     0.10702    87.81361   170.37471     0.10702
    20.50000    92.18852   189.63476     0.10689    87.81148   170.36524     0.10689
    20.60000    92.19066   189.64425     0.10677    87.80934   170.35575     0.10677
    20.70000    92.19280   189.65375     0.10665    87.80720   170.34625     0.10665
    20.80000    92.19494   189.66328     0.10652    87.80506   170.33672     0.10652
    20.90000    92.19709   189.67283     0.10640    87.80291   170.32717     0.10640
    21.00000    92.19925   189.68241     0.10628    87.80075   170.31759     0.10628
    21.10000    92.20141   189.69200     0.10615    87.79859   170.30800     0.10615
    21.20000    92.20358   189.70161     0.10603    87.79642   170.29839     0.10603
    21.30000    92.20575   189.71125     0.10591    87.79425   170.28875     0.10591
    21.40000    92.20792   189.72091     0.10578    87.79208   170.27909     0.10578
    21.50000    92.21010   189.73059     0.10566    87.78990   170.26941     0.10566
    21.60000    92.21228   189.74029     0.10554    87.78772   170.25971     0.10554
    21.70000    92.21447   189.75001     0.10541    87.78553   170.24999     0.10541
    21.80000    92.21667   189.75975     0.10529    87.78333   170.24025     0.10529
    21.90000    92.21887   189.76952     0.10517    87.78113   170.23048     0.10517
    22.00000    92.22107   189.77930     0.10504    87.77893   170.22070     0.10504
    22.10000    92.22328   189.78911     0.10492    87.77672   170.21089     0.10492
    22.20000    92.22549   189.79894     0.10480    87.77451   170.20106     0.10480
    22.30000    92.22771   189.80880     0.10467    87.77229   170.19120     0.10467
    22.40000    92.22993   189.81867     0.10455    87.77007   170.18133     0.10455
    22.50000    92.23216   189.82857     0.10443    87.76784   170.17143     0.10443
    22.60000    92.23439   189.83849     0.10430    87.76561   170.16151     0.10430
    22.70000    92.23663   189.84843     0.10418    87.76337   170.15157     0.10418
    22.80000    92.23887   189.85840     0.10406    87.76113   170.14160     0.10406
    22.90000    92.24112   189.86838     0.10394    87.75888   170.13162     0.10394
    23.00000    92.24337   189.87839     0.10381    87.75663   170.12161     0.10381
    23.10000    92.24563   189.88843     0.10369    87.75437   170.11157     0.10369
    23.20000    92.24790   189.89848     0.10357    87.75210   170.10152     0.10357
    23.30000    92.25016   189.90856     0.10344    87.74984   170.09144     0.10344
    23.40000    92.25244   189.91866     0.10332    87.74756   170.08134     0.10332
    23.50000    92.25471   189.92879     0.10320    87.74529   170.07121     0.10320
    23.60000    92.25700   189.93893     0.10308    87.74300   170.06107     0.10308
    23.70000    92.25929   189.94910     0.10295    87.74071   170.05090     0.10295
    23.80000    92.26158   189.95930     0.10283    87.73842   170.04070     0.10283
    23.90000    92.26388   189.96951     0.10271    87.73612   170.03049     0.10271
    24.00000    92.26618   189.97975     0.10258    87.73382   170.02025     0.10258
    24.10000    92.26849   189.99002     0.10246    87.73151   170.00998     0.10246
    24.20000    92.27081   190.00030     0.10234    87.72919   169.99970     0.10234
    24.30000    92.27313   190.01061     0.10222    87.72687   169.98939     0.10222
    24.40000    92.27545   190.02095     0.10209    87.72455   169.97905     0.10209
    24.50000    92.27778   190.03131     0.10197    87.72222   169.96869     0.10197
    24.60000    92.28012   190.04169     0.10185    87.71988   169.95831     0.10185
    24.70000    92.28246   190.05210     0.10172    87.71754   169.94790     0.10172
    24.80000    92.28480   190.06253     0.10160    87.71520   169.93747     0.10160
    24.90000    92.28715   190.07298     0.10148    87.71285   169.92702     0.10148
    25.00000    92.28951   190.08346     0.10136    87.71049   169.91654     0.10136
    25.10000    92.29187   190.09396     0.10123    87.70813   169.90604     0.10123
    25.20000    92.29424   190.10449     0.10111    87.70576   169.89551     0.10111
    25.30000    92.29661   190.11504     0.10099    87.70339   169.88496     0.10099
    25.40000    92.29899   190.12562     0.10087    87.70101   169.87438     0.10087
    25.50000    92.30137   190.13622     0.10074    87.69863   169.86378     0.10074
    25.60000    92.30376   190.14684     0.10062    87.69624   169.85316     0.10062
    25.70000    92.30616   190.15750     0.10050    87.69384   169.84250     0.10050
    25.80000    92.30856   190.16817     0.10037    87.69144   169.83183     0.10037
    25.90000    92.31096   190.17887     0.10025    87.68904   169.82113     0.10025
    26.00000    92.31338   190.18960     0.10013    87.68662   169.81040     0.10013
    26.10000    92.31579   190.20035     0.10001    87.68421   169.79965     0.10001
    26.20000    92.31822   190.21112     0.09988    87.68178   169.78888     0.09988
    26.30000    92.32064   190.22192     0.09976    87.67936   169.77808     0.09976
    26.40000    92.32308   190.23275     0.09964    87.67692   169.76725     0.09964
    26.50000    92.32552   190.24360     0.09952    87.67448   169.75640     0.09952
    26.60000    92.32796   190.25448     0.09939    87.67204   169.74552     0.09939
    26.70000    92.33041   190.26539     0.09927    87.66959   169.73461     0.09927
    26.80000    92.33287   190.27632     0.09915    87.66713   169.72368     0.09915
    26.90000    92.33533   190.28727     0.09903    87.66467   169.71273     0.09903
    27.00000    92.33780   190.29825     0.09890    87.66220   169.70175     0.09890
    27.10000    92.34027   190.30926     0.09878    87.65973   169.69074     0.09878
    27.20000    92.34275   190.32029     0.09866    87.65725   169.67971     0.09866
    27.30000    92.34524   190.33135     0.09854    87.65476   169.66865     0.09854
    27.40000    92.34773   190.34244     0.09841    87.65227   169.65756     0.09841
    27.50000    92.35023   190.35355     0.09829    87.64977   169.64645     0.09829
    27.60000    92.35273   190.36469     0.09817    87.64727   169.63531     0.09817
    27.70000    92.35524   190.37586     0.09805    87.64476   169.62414     0.09805
    27.80000    92.35775   190.38705     0.09792    87.64225   169.61295     0.09792
    27.90000    92.36027   190.39827     0.09780    87.63973   169.60173     0.09780
    28.00000    92.36280   190.40952     0.09768    87.63720   169.59048     0.09768
    28.10000    92.36533   190.42079     0.09756    87.63467   169.57921     0.09756
    28.20000    92.36787   190.43209     0.09744    87.63213   169.56791     0.09744
    28.30000    92.37041   190.44342     0.09731    87.62959   169.55658     0.09731
    28.40000    92.37296   190.45477     0.09719    87.62704   169.54523     0.09719
    28.50000    92.37552   190.46616     0.09707    87.62448   169.53384     0.09707
    28.60000    92.37808   190.47757     0.09695    87.62192   169.52243     0.09695
    28.70000    92.38065   190.48901     0.09682    87.61935   169.51099     0.09682
    28.80000    92.38323   190.50047     0.09670    87.61677   169.49953     0.09670
    28.90000    92.38581   190.51197     0.09658    87.61419   169.48803     0.09658
    29.00000    92.38839   190.52349     0.09646    87.61161   169.47651     0.09646
    29.10000    92.39099   190.53504     0.09634    87.60901   169.46496     0.09634
    29.20000    92.39359   190.54661     0.09621    87.60641   169.45339     0.09621
    29.30000    92.39619   190.55822     0.09609    87.60381   169.44178     0.09609
    29.40000    92.39881   190.56985     0.09597    87.60119   169.43015     0.09597
    29.50000    92.40142   190.58152     0.09585    87.59858   169.41848     0.09585
    29.60000    92.40405   190.59321     0.09573    87.59595   169.40679     0.09573
    29.70000    92.40668   190.60493     0.09560    87.59332   169.39507     0.09560
    29.80000    92.40932   190.61668     0.09548    87.59068   169.38332     0.09548
    29.90000    92.41196   190.62846     0.09536    87.58804   169.37154     0.09536
    30.00000    92.41461   190.64026     0.09524    87.58539   169.35974     0.09524
    30.10000    92.41727   190.65210     0.09511    87.58273   169.34790     0.09511
    30.20000    92.41993   190.66396     0.09499    87.58007   169.33604     0.09499
    30.30000    92.42260   190.67586     0.09487    87.57740   169.32414     0.09487
    30.40000    92.42527   190.68778     0.09475    87.57473   169.31222     0.09475
    30.50000    92.42796   190.69973     0.09463    87.57204   169.30027     0.09463
    30.60000    92.43065   190.71172     0.09450    87.56935   169.28828     0.09450
    30.70000    92.43334   190.72373     0.09438    87.56666   169.27627     0.09438
    30.80000    92.43604   190.73577     0.09426    87.56396   169.26423     0.09426
    30.90000    92.43875   190.74785     0.09414    87.56125   169.25215     0.09414
    31.00000    92.44147   190.75995     0.09402    87.55853   169.24005     0.09402
    31.10000    92.44419   190.77208     0.09390    87.55581   169.22792     0.09390
    31.20000    92.44692   190.78424     0.09377    87.55308   169.21576     0.09377
    31.30000    92.44965   190.79644     0.09365    87.55035   169.20356     0.09365
    31.40000    92.45240   190.80866     0.09353    87.54760   169.19134     0.09353
    31.50000    92.45514   190.82092     0.09341    87.54486   169.17908     0.09341
    31.60000    92.45790   190.83320     0.09329    87.54210   169.16680     0.09329
    31.70000    92.46066   190.84552     0.09316    87.53934   169.15448     0.09316
    31.80000    92.46343   190.85787     0.09304    87.53657   169.14213     0.09304
    31.90000    92.46621   190.87025     0.09292    87.53379   169.12975     0.09292
    32.00000    92.46899   190.88266     0.09280    87.53101   169.11734     0.09280
    32.10000    92.47178   190.89510     0.09268    87.52822   169.10490     0.09268
    32.20000    92.47458   190.90757     0.09256    87.52542   169.09243     0.09256
    32.30000    92.47738   190.92008     0.09243    87.52262   169.07992     0.09243
    32.40000    92.48019   190.93261     0.09231    87.51981   169.06739     0.09231
    32.50000    92.48301   190.94518     0.09219    87.51699   169.05482     0.09219
    32.60000    92.48583   190.95778     0.09207    87.51417   169.04222     0.09207
    32.70000    92.48867   190.97041     0.09195    87.51133   169.02959     0.09195
    32.80000    92.49150   190.98308     0.09183    87.50850   169.01692     0.09183
    32.90000    92.49435   190.99577     0.09170    87.50565   169.00423     0.09170
    33.00000    92.49720   191.00850     0.09158    87.50280   168.99150     0.09158
    33.10000    92.50006   191.02126     0.09146    87.49994   168.97874     0.09146
    33.20000    92.50293   191.03406     0.09134    87.49707   168.96594     0.09134
    33.30000    92.50581   191.04689     0.09122    87.49419   168.95311     0.09122
    33.40000    92.50869   191.05975     0.09110    87.49131   168.94025     0.09110
    33.50000    92.51158   191.07264     0.09097    87.48842   168.92736     0.09097
    33.60000    92.51447   191.08557     0.09085    87.48553   168.91443     0.09085
    33.70000    92.51738   191.09853     0.09073    87.48262   168.90147     0.09073
    33.80000    92.52029   191.11152     0.09061    87.47971   168.88848     0.09061
    33.90000    92.52321   191.12455     0.09049    87.47679   168.87545     0.09049
    34.00000    92.52613   191.13761     0.09037    87.47387   168.86239     0.09037
    34.10000    92.52907   191.15070     0.09025    87.47093   168.84930     0.09025
    34.20000    92.53201   191.16383     0.09012    87.46799   168.83617     0.09012
    34.30000    92.53496   191.17699     0.09000    87.46504   168.82301     0.09000
    34.40000    92.53791   191.19019     0.08988    87.46209   168.80981     0.08988
    34.50000    92.54088   191.20342     0.08976    87.45912   168.79658     0.08976
    34.60000    92.54385   191.21669     0.08964    87.45615   168.78331     0.08964
    34.70000    92.54683   191.22999     0.08952    87.45317   168.77001     0.08952
    34.80000    92.54981   191.24333     0.08940    87.45019   168.75667     0.08940
    34.90000    92.55281   191.25670     0.08927    87.44719   168.74330     0.08927
    35.00000    92.55581   191.27010     0.08915    87.44419   168.72990     0.08915
    35.10000    92.55882   191.28354     0.08903    87.44118   168.71646     0.08903
    35.20000    92.56184   191.29702     0.08891    87.43816   168.70298     0.08891
    35.30000    92.56486   191.31053     0.08879    87.43514   168.68947     0.08879
    35.40000    92.56789   191.32408     0.08867    87.43211   168.67592     0.08867
    35.50000    92.57093   191.33766     0.08855    87.42907   168.66234     0.08855
    35.60000    92.57398   191.35128     0.08843    87.42602   168.64872     0.08843
    35.70000    92.57704   191.36494     0.08830    87.42296   168.63506     0.08830
    35.80000    92.58010   191.37863     0.08818    87.41990   168.62137     0.08818
    35.90000    92.58318   191.39236     0.08806    87.41682   168.60764     0.08806
    36.00000    92.58626   191.40612     0.08794    87.41374   168.59388     0.08794
    36.10000    92.58934   191.41992     0.08782    87.41066   168.58008     0.08782
    36.20000    92.59244   191.43376     0.08770    87.40756   168.56624     0.08770
    36.30000    92.59555   191.44764     0.08758    87.40445   168.55236     0.08758
    36.40000    92.59866   191.46155     0.08746    87.40134   168.53845     0.08746
    36.50000    92.60178   191.47550     0.08733    87.39822   168.52450     0.08733
    36.60000    92.60491   191.48948     0.08721    87.39509   168.51052     0.08721
    36.70000    92.60805   191.50351     0.08709    87.39195   168.49649     0.08709
    36.80000    92.61119   191.51757     0.08697    87.38881   168.48243     0.08697
    36.90000    92.61435   191.53167     0.08685    87.38565   168.46833     0.08685
    37.00000    92.61751   191.54581     0.08673    87.38249   168.45419     0.08673
    37.10000    92.62068   191.55998     0.08661    87.37932   168.44002     0.08661
    37.20000    92.62386   191.57420     0.08649    87.37614   168.42580     0.08649
    37.30000    92.62705   191.58845     0.08637    87.37295   168.41155     0.08637
    37.40000    92.63024   191.60274     0.08625    87.36976   168.39726     0.08625
    37.50000    92.63345   191.61707     0.08612    87.36655   168.38293     0.08612
    37.60000    92.63666   191.63144     0.08600    87.36334   168.36856     0.08600
    37.70000    92.63988   191.64585     0.08588    87.36012   168.35415     0.08588
    37.80000    92.64311   191.66030     0.08576    87.35689   168.33970     0.08576
    37.90000    92.64635   191.67478     0.08564    87.35365   168.32522     0.08564
    38.00000    92.64960   191.68931     0.08552    87.35040   168.31069     0.08552
    38.10000    92.65285   191.70388     0.08540    87.34715   168.29612     0.08540
    38.20000    92.65612   191.71848     0.08528    87.34388   168.28152     0.08528
    38.30000    92.65939   191.73313     0.08516    87.34061   168.26687     0.08516
    38.40000    92.66267   191.74782     0.08504    87.33733   168.25218     0.08504
    38.50000    92.66596   191.76254     0.08492    87.33404   168.23746     0.08492
    38.60000    92.66926   191.77731     0.08479    87.33074   168.22269     0.08479
    38.70000    92.67257   191.79212     0.08467    87.32743   168.20788     0.08467
    38.80000    92.67589   191.80697     0.08455    87.32411   168.19303     0.08455
    38.90000    92.67922   191.82186     0.08443    87.32078   168.17814     0.08443
    39.00000    92.68255   191.83679     0.08431    87.31745   168.16321     0.08431
    39.10000    92.68590   191.85176     0.08419    87.31410   168.14824     0.08419
    39.20000    92.68925   191.86678     0.08407    87.31075   168.13322     0.08407
    39.30000    92.69261   191.88183     0.08395    87.30739   168.11817     0.08395
    39.40000    92.69599   191.89693     0.08383    87.30401   168.10307     0.08383
    39.50000    92.69937   191.91207     0.08371    87.30063   168.08793     0.08371
    39.60000    92.70276   191.92726     0.08359    87.29724   168.07274     0.08359
    39.70000    92.70616   191.94248     0.08347    87.29384   168.05752     0.08347
    39.80000    92.70957   191.95775     0.08335    87.29043   168.04225     0.08335
    39.90000    92.71299   191.97306     0.08323    87.28701   168.02694     0.08323
    40.00000    92.71642   191.98841     0.08311    87.28358   168.01159     0.08311
