 # applied field (T), theta (degree), phi (degree), abs
     0.00000    90.00000    45.42857    50.85066
     0.10000    89.77070    45.42857    50.85066
     0.20000    89.48408    44.57143    50.85066
     0.30000    89.25478    44.57143    50.85066
     0.40000    88.96815    45.42857    50.85066
     0.50000    88.73885    44.57143    50.85066
     0.60000    88.45223    44.57143    50.85066
     0.70000    88.22293    45.42857    50.85066
     0.80000    87.99363    45.42857    50.85066
     0.90000    87.70701    44.57143    50.85066
     1.00000    87.47771    44.57143    50.85066
     1.10000    87.19108    44.57143    50.85066
     1.20000    86.96178    45.42857    50.85066
     1.30000    86.73248    45.42857    50.85066
     1.40000    86.44586    45.42857    50.85066
     1.50000    86.21656    45.42857    50.85066
     1.60000    85.92994    45.42857    50.85066
     1.70000    85.70064    44.57143    50.85066
     1.80000    85.47134    45.42857    50.85066
     1.90000    85.18471    45.42857    50.85066
     2.00000    84.95541    44.57143    50.85066
     2.10000    84.66879    44.57143    50.85066
     2.20000    84.43949    45.42857    50.85066
     2.30000    84.21019    44.57143    50.85066
     2.40000    83.92357    44.57143    50.85066
     2.50000    83.69427    44.57143    50.85066
     2.60000    83.46497    45.42857    50.85066
     2.70000    83.17834    45.00000    50.85066
     2.80000    82.94904    45.00000    50.85066
     2.90000    82.71975    45.00000    50.85066
     3.00000    82.43312    45.00000    50.85066
     3.10000    82.20382    45.00000    50.85066
     3.20000    81.91720    45.00000    50.85066
     3.30000    81.68790    45.00000    50.85066
     3.40000    81.45860    45.00000    50.85066
     3.50000    81.22930    45.00000    50.85066
     3.60000    80.94268    45.00000    50.85066
     3.70000    80.71338    45.00000    50.85066
     3.80000    80.48408    45.00000    50.85066
     3.90000    80.19745    45.00000    50.85066
     4.00000    79.96815    45.00000    50.85066
     4.10000    79.73885    45.00000    50.85066
     4.20000    79.45223    44.56311    50.85066
     4.30000    79.22293    44.56311    50.85066
     4.40000    78.99363    44.56311    50.85066
     4.50000    78.76433    44.56311    50.85066
     4.60000    78.47771    45.43689    50.85066
     4.70000    78.24841    44.56311    50.85066
     4.80000    78.01911    44.56311    50.85066
     4.90000    77.78981    44.56311    50.85066
     5.00000    77.56051    45.43689    50.85066
     5.10000    77.27389    44.56311    50.85066
     5.20000    77.04459    44.56311    50.85066
     5.30000    76.81529    45.00000    50.85066
     5.40000    76.58599    45.00000    50.85066
     5.50000    76.35669    45.00000    50.85066
     5.60000    76.07006    45.00000    50.85066
     5.70000    75.84076    45.00000    50.85066
     5.80000    75.61146    45.00000    50.85066
     5.90000    75.38217    45.00000    50.85066
     6.00000    75.15287    45.00000    50.85066
     6.10000    74.92357    45.00000    50.85066
     6.20000    74.69427    45.00000    50.85066
     6.30000    74.40764    45.44554    50.85066
     6.40000    74.17834    44.55446    50.85066
     6.50000    73.94904    45.44554    50.85066
     6.60000    73.71975    44.55446    50.85066
     6.70000    73.49045    44.55446    50.85066
     6.80000    73.26115    44.55446    50.85066
     6.90000    73.03185    45.44554    50.85066
     7.00000    72.80255    44.55446    50.85066
     7.10000    72.57325    45.00000    50.85066
     7.20000    72.34395    45.00000    50.85066
     7.30000    72.11465    45.00000    50.85066
     7.40000    71.88535    45.00000    50.85066
     7.50000    71.65605    45.00000    50.85066
     7.60000    71.42675    45.00000    50.85066
     7.70000    71.19745    45.00000    50.85066
     7.80000    71.02548    45.00000    50.85066
     7.90000    70.73885    44.54545    50.85066
     8.00000    70.50955    45.45455    50.85066
     8.10000    70.28025    44.54545    50.85066
     8.20000    70.05096    45.45455    50.85066
     8.30000    69.82166    45.45455    50.85066
     8.40000    69.59236    45.45455    50.85066
     8.50000    69.30573    45.00000    50.85066
     8.60000    69.19108    45.00000    50.85066
     8.70000    68.96178    45.00000    50.85066
     8.80000    68.73248    45.00000    50.85066
     8.90000    68.50318    45.00000    50.85066
     9.00000    68.27389    45.00000    50.85066
     9.10000    68.10191    45.00000    50.85066
     9.20000    67.87261    45.00000    50.85066
     9.30000    67.64331    45.46392    50.85066
     9.40000    67.41401    45.46392    50.85066
     9.50000    67.18471    44.53608    50.85066
     9.60000    67.01274    44.53608    50.85066
     9.70000    66.78344    44.53608    50.85066
     9.80000    66.55414    44.53608    50.85066
     9.90000    66.32484    45.00000    50.85066
    10.00000    66.15287    45.00000    50.85066
    10.10000    65.92357    45.00000    50.85066
    10.20000    65.69427    45.00000    50.85066
    10.30000    65.52229    45.00000    50.85066
    10.40000    65.29299    45.00000    50.85066
    10.50000    65.12102    45.00000    50.85066
    10.60000    64.89172    44.52632    50.85066
    10.70000    64.66242    45.47368    50.85066
    10.80000    64.43312    44.52632    50.85066
    10.90000    64.26115    44.52632    50.85066
    11.00000    64.03185    45.47368    50.85066
    11.10000    63.80255    45.00000    50.85066
    11.20000    63.63057    45.00000    50.85066
    11.30000    63.40127    45.00000    50.85066
    11.40000    63.22930    45.00000    50.85066
    11.50000    63.00000    45.00000    50.85066
    11.60000    62.82803    45.00000    50.85066
    11.70000    62.65605    45.00000    50.85066
    11.80000    62.42675    45.48387    50.85066
    11.90000    62.19745    45.48387    50.85066
    12.00000    62.02548    44.51613    50.85066
    12.10000    61.79618    44.51613    50.85066
    12.20000    61.62420    44.51613    50.85066
    12.30000    61.39490    45.00000    50.85066
    12.40000    61.22293    45.00000    50.85066
    12.50000    61.05096    45.00000    50.85066
    12.60000    60.82166    45.00000    50.85066
    12.70000    60.64968    45.00000    50.85066
    12.80000    60.42038    45.00000    50.85066
    12.90000    60.24841    44.50549    50.85066
    13.00000    60.07643    44.50549    50.85066
    13.10000    59.84713    45.49451    50.85066
    13.20000    59.67516    45.49451    50.85066
    13.30000    59.50318    44.50549    50.85066
    13.40000    59.21656    45.00000    50.85066
    13.50000    59.10191    45.00000    50.85066
    13.60000    58.92994    45.00000    50.85066
    13.70000    58.75796    45.00000    50.85066
    13.80000    58.52866    45.00000    50.85066
    13.90000    58.35669    45.00000    50.85066
    14.00000    58.24204    45.00000    50.85066
    14.10000    58.01274    44.49438    50.85066
    14.20000    57.78344    45.50562    50.85066
    14.30000    57.61146    45.50562    50.85066
    14.40000    57.43949    45.50562    50.85066
    14.50000    57.26752    44.49438    50.85066
    14.60000    57.09554    45.00000    50.85066
    14.70000    56.86624    45.00000    50.85066
    14.80000    56.69427    45.00000    50.85066
    14.90000    56.52229    45.00000    50.85066
    15.00000    56.35032    45.00000    50.85066
    15.10000    56.23567    45.00000    50.85066
    15.20000    56.00637    44.48276    50.85066
    15.30000    55.83439    45.51724    50.85066
    15.40000    55.66242    45.51724    50.85066
    15.50000    55.49045    45.51724    50.85066
    15.60000    55.31847    45.51724    50.85066
    15.70000    55.14650    45.00000    50.85066
    15.80000    54.97452    45.00000    50.85066
    15.90000    54.80255    45.00000    50.85066
    16.00000    54.63057    45.00000    50.85066
    16.10000    54.45860    45.00000    50.85066
    16.20000    54.28662    45.00000    50.85066
    16.30000    54.11465    44.47059    50.85066
    16.40000    53.94268    45.52941    50.85066
    16.50000    53.77070    44.47059    50.85066
    16.60000    53.59873    45.52941    50.85066
    16.70000    53.42675    44.47059    50.85066
    16.80000    53.25478    45.00000    50.85066
    16.90000    53.08280    45.00000    50.85066
    17.00000    52.91083    45.00000    50.85066
    17.10000    52.73885    45.00000    50.85066
    17.20000    52.56688    45.00000    50.85066
    17.30000    52.45223    45.00000    50.85066
    17.40000    52.28025    45.54217    50.85066
    17.50000    52.10828    44.45783    50.85066
    17.60000    51.93631    44.45783    50.85066
    17.70000    51.76433    44.45783    50.85066
    17.80000    51.53503    45.00000    50.85066
    17.90000    51.47771    45.00000    50.85066
    18.00000    51.30573    45.00000    50.85066
    18.10000    51.13376    45.00000    50.85066
    18.20000    50.96178    45.00000    50.85066
    18.30000    50.84713    45.00000    50.85066
    18.40000    50.67516    45.00000    50.85066
    18.50000    50.50318    45.55556    50.85066
    18.60000    50.33121    45.55556    50.85066
    18.70000    50.21656    44.44444    50.85066
    18.80000    50.04459    44.44444    50.85066
    18.90000    49.87261    44.44444    50.85066
    19.00000    49.75796    45.00000    50.85066
    19.10000    49.58599    45.00000    50.85066
    19.20000    49.41401    45.00000    50.85066
    19.30000    49.29936    45.00000    50.85066
    19.40000    49.12739    45.00000    50.85066
    19.50000    49.01274    45.00000    50.85066
    19.60000    48.84076    45.56962    50.85066
    19.70000    48.66879    45.56962    50.85066
    19.80000    48.55414    45.56962    50.85066
    19.90000    48.38217    44.43038    50.85066
    20.00000    48.21019    44.43038    50.85066
    20.10000    48.09554    45.00000    50.85066
    20.20000    47.92357    45.00000    50.85066
    20.30000    47.80892    45.00000    50.85066
    20.40000    47.63694    45.00000    50.85066
    20.50000    47.52229    45.00000    50.85066
    20.60000    47.35032    45.00000    50.85066
    20.70000    47.23567    44.41558    50.85066
    20.80000    47.06369    44.41558    50.85066
    20.90000    46.94904    44.41558    50.85066
    21.00000    46.77707    45.58442    50.85066
    21.10000    46.66242    45.58442    50.85066
    21.20000    46.49045    45.00000    50.85066
    21.30000    46.37580    45.00000    50.85066
    21.40000    46.26115    45.00000    50.85066
    21.50000    46.08917    45.00000    50.85066
    21.60000    45.97452    45.00000    50.85066
    21.70000    45.80255    45.00000    50.85066
    21.80000    45.74522    45.00000    50.85066
    21.90000    45.57325    45.60000    50.85066
    22.00000    45.40127    45.60000    50.85066
    22.10000    45.28662    44.40000    50.85066
    22.20000    45.17197    44.40000    50.85066
    22.30000    44.94268    45.00000    50.85066
    22.40000    44.88535    45.00000    50.85066
    22.50000    44.77070    45.00000    50.85066
    22.60000    44.59873    45.00000    50.85066
    22.70000    44.48408    45.00000    50.85066
    22.80000    44.36943    45.00000    50.85066
    22.90000    44.19745    45.00000    50.85066
    23.00000    44.08280    45.61644    50.85066
    23.10000    43.96815    44.38356    50.85066
    23.20000    43.79618    44.38356    50.85066
    23.30000    43.68153    45.61644    50.85066
    23.40000    43.56688    45.61644    50.85066
    23.50000    43.39490    45.00000    50.85066
    23.60000    43.33758    45.00000    50.85066
    23.70000    43.16561    45.00000    50.85066
    23.80000    43.05096    45.00000    50.85066
    23.90000    42.93631    45.00000    50.85066
    24.00000    42.82166    45.00000    50.85066
    24.10000    42.70701    45.00000    50.85066
    24.20000    42.53503    44.36620    50.85066
    24.30000    42.42038    44.36620    50.85066
    24.40000    42.30573    45.63380    50.85066
    24.50000    42.19108    45.63380    50.85066
    24.60000    42.07643    45.63380    50.85066
    24.70000    41.90446    45.00000    50.85066
    24.80000    41.84713    45.00000    50.85066
    24.90000    41.67516    45.00000    50.85066
    25.00000    41.56051    45.00000    50.85066
    25.10000    41.44586    45.00000    50.85066
    25.20000    41.33121    45.00000    50.85066
    25.30000    41.21656    45.00000    50.85066
    25.40000    41.10191    44.34783    50.85066
    25.50000    40.98726    45.65217    50.85066
    25.60000    40.87261    44.34783    50.85066
    25.70000    40.75796    44.34783    50.85066
    25.80000    40.64331    44.34783    50.85066
    25.90000    40.47134    45.00000    50.85066
    26.00000    40.41401    45.00000    50.85066
    26.10000    40.29936    45.00000    50.85066
    26.20000    40.18471    45.00000    50.85066
    26.30000    40.07006    45.00000    50.85066
    26.40000    39.95541    45.00000    50.85066
    26.50000    39.84076    45.00000    50.85066
    26.60000    39.78344    45.00000    50.85066
    26.70000    39.61146    44.32836    50.85066
    26.80000    39.49682    45.67164    50.85066
    26.90000    39.38217    45.67164    50.85066
    27.00000    39.26752    44.32836    50.85066
    27.10000    39.15287    45.67164    50.85066
    27.20000    39.03822    45.00000    50.85066
    27.30000    38.92357    45.00000    50.85066
    27.40000    38.80892    45.00000    50.85066
    27.50000    38.69427    45.00000    50.85066
    27.60000    38.57962    45.00000    50.85066
    27.70000    38.46497    45.00000    50.85066
    27.80000    38.40764    45.00000    50.85066
    27.90000    38.29299    44.30769    50.85066
    28.00000    38.17834    44.30769    50.85066
    28.10000    38.06369    44.30769    50.85066
    28.20000    37.94904    45.69231    50.85066
    28.30000    37.83439    45.69231    50.85066
    28.40000    37.71975    45.69231    50.85066
    28.50000    37.66242    45.00000    50.85066
    28.60000    37.54777    45.00000    50.85066
    28.70000    37.43312    45.00000    50.85066
    28.80000    37.31847    45.00000    50.85066
    28.90000    37.20382    45.00000    50.85066
    29.00000    37.08917    45.00000    50.85066
    29.10000    37.03185    45.00000    50.85066
    29.20000    36.91720    44.28571    50.85066
    29.30000    36.80255    45.71429    50.85066
    29.40000    36.68790    45.71429    50.85066
    29.50000    36.63057    44.28571    50.85066
    29.60000    36.51592    45.71429    50.85066
    29.70000    36.40127    44.28571    50.85066
    29.80000    36.28662    45.00000    50.85066
    29.90000    36.22930    45.00000    50.85066
    30.00000    36.11465    45.00000    50.85066
    30.10000    36.00000    45.00000    50.85066
    30.20000    35.88535    45.00000    50.85066
    30.30000    35.82803    45.00000    50.85066
    30.40000    35.71338    45.00000    50.85066
    30.50000    35.65605    45.00000    50.85066
    30.60000    35.54140    45.73770    50.85066
    30.70000    35.42675    44.26230    50.85066
    30.80000    35.31210    45.73770    50.85066
    30.90000    35.19745    44.26230    50.85066
    31.00000    35.14013    45.73770    50.85066
    31.10000    35.02548    44.26230    50.85066
    31.20000    34.91083    45.00000    50.85066
    31.30000    34.85350    45.00000    50.85066
    31.40000    34.73885    45.00000    50.85066
    31.50000    34.68153    45.00000    50.85066
    31.60000    34.56688    45.00000    50.85066
    31.70000    34.45223    45.00000    50.85066
    31.80000    34.39490    45.00000    50.85066
    31.90000    34.33758    45.00000    50.85066
    32.00000    34.16561    44.23729    50.85066
    32.10000    34.10828    45.76271    50.85066
    32.20000    33.99363    45.76271    50.85066
    32.30000    33.93631    45.76271    50.85066
    32.40000    33.82166    45.76271    50.85066
    32.50000    33.70701    44.23729    50.85066
    32.60000    33.59236    45.00000    50.85066
    32.70000    33.53503    45.00000    50.85066
    32.80000    33.47771    45.00000    50.85066
    32.90000    33.36306    45.00000    50.85066
    33.00000    33.30573    45.00000    50.85066
    33.10000    33.19108    45.00000    50.85066
    33.20000    33.13376    45.00000    50.85066
    33.30000    33.01911    45.00000    50.85066
    33.40000    32.90446    45.78947    50.85066
    33.50000    32.84713    45.78947    50.85066
    33.60000    32.73248    44.21053    50.85066
    33.70000    32.67516    44.21053    50.85066
    33.80000    32.56051    44.21053    50.85066
    33.90000    32.50318    44.21053    50.85066
    34.00000    32.38854    44.21053    50.85066
    34.10000    32.27389    45.00000    50.85066
    34.20000    32.21656    45.00000    50.85066
    34.30000    32.15924    45.00000    50.85066
    34.40000    32.04459    45.00000    50.85066
    34.50000    31.98726    45.00000    50.85066
    34.60000    31.92994    45.00000    50.85066
    34.70000    31.81529    45.00000    50.85066
    34.80000    31.75796    45.00000    50.85066
    34.90000    31.70064    45.00000    50.85066
    35.00000    31.58599    44.18182    50.85066
    35.10000    31.47134    44.18182    50.85066
    35.20000    31.41401    45.81818    50.85066
    35.30000    31.29936    44.18182    50.85066
    35.40000    31.24204    44.18182    50.85066
    35.50000    31.18471    44.18182    50.85066
    35.60000    31.07006    44.18182    50.85066
    35.70000    31.01274    45.00000    50.85066
    35.80000    30.89809    45.00000    50.85066
    35.90000    30.84076    45.00000    50.85066
    36.00000    30.78344    45.00000    50.85066
    36.10000    30.66879    45.00000    50.85066
    36.20000    30.61146    45.00000    50.85066
    36.30000    30.49682    45.00000    50.85066
    36.40000    30.43949    45.00000    50.85066
    36.50000    30.38217    45.84906    50.85066
    36.60000    30.26752    44.15094    50.85066
    36.70000    30.21019    44.15094    50.85066
    36.80000    30.15287    44.15094    50.85066
    36.90000    30.03822    45.84906    50.85066
    37.00000    29.98089    45.84906    50.85066
    37.10000    29.86624    44.15094    50.85066
    37.20000    29.80892    44.15094    50.85066
    37.30000    29.75159    45.00000    50.85066
    37.40000    29.63694    45.00000    50.85066
    37.50000    29.57962    45.00000    50.85066
    37.60000    29.52229    45.00000    50.85066
    37.70000    29.46497    45.00000    50.85066
    37.80000    29.35032    45.00000    50.85066
    37.90000    29.29299    45.00000    50.85066
    38.00000    29.23567    45.00000    50.85066
    38.10000    29.17834    45.00000    50.85066
    38.20000    29.06369    45.88235    50.85066
    38.30000    29.00637    45.88235    50.85066
    38.40000    28.89172    45.88235    50.85066
    38.50000    28.83439    44.11765    50.85066
    38.60000    28.77707    44.11765    50.85066
    38.70000    28.71975    44.11765    50.85066
    38.80000    28.60510    44.11765    50.85066
    38.90000    28.54777    44.11765    50.85066
    39.00000    28.49045    45.00000    50.85066
    39.10000    28.43312    45.00000    50.85066
    39.20000    28.31847    45.00000    50.85066
    39.30000    28.26115    45.00000    50.85066
    39.40000    28.20382    45.00000    50.85066
    39.50000    28.14650    45.00000    50.85066
    39.60000    28.03185    45.00000    50.85066
    39.70000    27.97452    45.00000    50.85066
    39.80000    27.91720    45.00000    50.85066
    39.90000    27.85987    44.08163    50.85066
    40.00000    27.74522    45.91837    50.85066
