 # applied field (T), theta (degree), phi (degree), abs for RE 1-2
     0.00000     0.45917   135.00000     4.69637     0.45917    45.00000     4.69637
     0.10000     0.31511    87.33690     4.69630     0.74324    26.73783     4.69643
     0.20000     0.46721    40.69754     4.69623     1.05999    18.93154     4.69649
     0.30000     0.75390    22.97938     4.69615     1.38708    14.75266     4.69654
     0.40000     1.07247    15.34382     4.69607     1.71853    12.17162     4.69659
     0.50000     1.40160    11.23334     4.69598     2.05217    10.42295     4.69663
     0.60000     1.73551     8.68526     4.69588     2.38706     9.16013     4.69667
     0.70000     2.07209     6.95441     4.69578     2.72272     8.20476     4.69670
     0.80000     2.41043     5.70188     4.69568     3.05890     7.45600     4.69673
     0.90000     2.75004     4.75261     4.69557     3.39544     6.85266     4.69675
     1.00000     3.09069     4.00738     4.69546     3.73227     6.35548     4.69677
     1.10000     3.43222     3.40588     4.69534     4.06934     5.93817     4.69678
     1.20000     3.77457     2.90937     4.69522     4.40663     5.58245     4.69679
     1.30000     4.11767     2.49186     4.69509     4.74412     5.27521     4.69679
     1.40000     4.46150     2.13527     4.69496     5.08181     5.00684     4.69679
     1.50000     4.80606     1.82662     4.69482     5.41971     4.77010     4.69678
     1.60000     5.15134     1.55638     4.69467     5.75782     4.55946     4.69677
     1.70000     5.49735     1.31738     4.69453     6.09617     4.37059     4.69675
     1.80000     5.84409     1.10411     4.69438     6.43477     4.20009     4.69672
     1.90000     6.19158     0.91231     4.69422     6.77363     4.04523     4.69669
     2.00000     6.58910     0.71532     4.69403     7.16071     3.88482     4.69665
     2.10000     6.93824     0.55894     4.69387     7.50020     3.75653     4.69661
     2.20000     7.28818     0.41547     4.69370     7.84002     3.63819     4.69657
     2.30000     7.63894     0.28314     4.69352     8.18019     3.52858     4.69652
     2.40000     8.04028     0.14388     4.69332     8.56888     3.41285     4.69645
     2.50000     8.39285     0.03086     4.69313     8.90987     3.31868     4.69639
     2.60000     8.79631   359.91079     4.69292     9.29955     3.21852     4.69632
     2.70000     9.15079   359.81248     4.69272     9.64147     3.13647     4.69625
     2.80000     9.55648   359.70720     4.69250    10.03227     3.04864     4.69616
     2.90000     9.91296   359.62036     4.69229    10.37522     2.97628     4.69608
     3.00000    10.32098   359.52671     4.69206    10.76725     2.89842     4.69598
     3.10000    10.73029   359.43828     4.69182    11.16000     2.82510     4.69587
     3.20000    11.09000   359.36466     4.69160    11.50473     2.76426     4.69577
     3.30000    11.50179   359.28458     4.69135    11.89890     2.69836     4.69565
     3.40000    11.91496   359.20829     4.69110    12.29387     2.63591     4.69553
     3.50000    12.32951   359.13545     4.69084    12.68968     2.57662     4.69540
     3.60000    12.74549   359.06572     4.69057    13.08637     2.52021     4.69526
     3.70000    13.21470   358.99071     4.69027    13.53326     2.46001     4.69510
     3.80000    13.63378   358.92671     4.69000    13.93191     2.40902     4.69495
     3.90000    14.05436   358.86504     4.68972    14.33154     2.36031     4.69479
     4.00000    14.52883   358.79828     4.68941    14.78186     2.30807     4.69461
     4.10000    14.95266   358.74097     4.68912    15.18368     2.26365     4.69444
     4.20000    15.43085   358.67870     4.68880    15.63653     2.21591     4.69424
     4.30000    15.91105   358.61853     4.68848    16.09080     2.17031     4.69404
     4.40000    16.39329   358.56029     4.68815    16.54651     2.12671     4.69383
     4.50000    16.87758   358.50382     4.68781    17.00372     2.08499     4.69361
     4.60000    17.36396   358.44901     4.68748    17.46246     2.04502     4.69339
     4.70000    17.90639   358.38993     4.68710    17.97361     2.00260     4.69313
     4.80000    18.45145   358.33260     4.68672    18.48675     1.96211     4.69286
     4.90000    18.99914   358.27689     4.68634    19.00196     1.92342     4.69259
     5.00000    19.54949   358.22269     4.68596    19.51927     1.88645     4.69231
     5.10000    20.10251   358.16990     4.68557    20.03875     1.85111     4.69202
     5.20000    20.71352   358.11339     4.68515    20.61234     1.81405     4.69169
     5.30000    21.32778   358.05838     4.68473    21.18868     1.77877     4.69136
     5.40000    21.94528   358.00479     4.68431    21.76782     1.74519     4.69102
     5.50000    22.62225   357.94785     4.68385    22.40251     1.71043     4.69063
     5.60000    23.30306   357.89242     4.68340    23.04069     1.67752     4.69024
     5.70000    24.04456   357.83398     4.68291    23.73572     1.64388     4.68981
     5.80000    24.79049   357.77713     4.68243    24.43498     1.61224     4.68937
     5.90000    25.59838   357.71761     4.68192    25.19257     1.58033     4.68888
     6.00000    26.46920   357.65570     4.68138    26.00962     1.54854     4.68835
     6.10000    27.40395   357.59172     4.68083    26.88742     1.51728     4.68778
     6.20000    89.31606   357.02748     4.67840    90.68394     2.97252     4.67840
     6.30000    89.31617   357.02788     4.67838    90.68383     2.97212     4.67838
     6.40000    89.31628   357.02829     4.67836    90.68372     2.97171     4.67836
     6.50000    89.31639   357.02869     4.67833    90.68361     2.97131     4.67833
     6.60000    89.31650   357.02910     4.67831    90.68350     2.97090     4.67831
     6.70000    89.31661   357.02950     4.67829    90.68339     2.97050     4.67829
     6.80000    89.31672   357.02991     4.67827    90.68328     2.97009     4.67827
     6.90000    89.31682   357.03031     4.67825    90.68318     2.96969     4.67825
     7.00000    89.31693   357.03072     4.67822    90.68307     2.96928     4.67822
     7.10000    89.31704   357.03112     4.67820    90.68296     2.96888     4.67820
     7.20000    89.31715   357.03153     4.67818    90.68285     2.96847     4.67818
     7.30000    89.31726   357.03193     4.67816    90.68274     2.96807     4.67816
     7.40000    89.31737   357.03234     4.67814    90.68263     2.96766     4.67814
     7.50000    89.31747   357.03274     4.67812    90.68253     2.96726     4.67812
     7.60000    89.31758   357.03314     4.67809    90.68242     2.96686     4.67809
     7.70000    89.31769   357.03355     4.67807    90.68231     2.96645     4.67807
     7.80000    89.31780   357.03395     4.67805    90.68220     2.96605     4.67805
     7.90000    89.31791   357.03435     4.67803    90.68209     2.96565     4.67803
     8.00000    89.31801   357.03476     4.67801    90.68199     2.96524     4.67801
     8.10000    89.31812   357.03516     4.67798    90.68188     2.96484     4.67798
     8.20000    89.31823   357.03556     4.67796    90.68177     2.96444     4.67796
     8.30000    89.31834   357.03597     4.67794    90.68166     2.96403     4.67794
     8.40000    89.31845   357.03637     4.67792    90.68155     2.96363     4.67792
     8.50000    89.31855   357.03677     4.67790    90.68145     2.96323     4.67790
     8.60000    89.31866   357.03717     4.67788    90.68134     2.96283     4.67788
     8.70000    89.31877   357.03758     4.67785    90.68123     2.96242     4.67785
     8.80000    89.31888   357.03798     4.67783    90.68112     2.96202     4.67783
     8.90000    89.31899   357.03838     4.67781    90.68101     2.96162     4.67781
     9.00000    89.31909   357.03878     4.67779    90.68091     2.96122     4.67779
     9.10000    89.31920   357.03918     4.67777    90.68080     2.96082     4.67777
     9.20000    89.31931   357.03959     4.67774    90.68069     2.96041     4.67774
     9.30000    89.31942   357.03999     4.67772    90.68058     2.96001     4.67772
     9.40000    89.31952   357.04039     4.67770    90.68048     2.95961     4.67770
     9.50000    89.31963   357.04079     4.67768    90.68037     2.95921     4.67768
     9.60000    89.31974   357.04119     4.67766    90.68026     2.95881     4.67766
     9.70000    89.31985   357.04159     4.67763    90.68015     2.95841     4.67763
     9.80000    89.31995   357.04199     4.67761    90.68005     2.95801     4.67761
     9.90000    89.32006   357.04239     4.67759    90.67994     2.95761     4.67759
    10.00000    89.32017   357.04279     4.67757    90.67983     2.95721     4.67757
    10.10000    89.32028   357.04319     4.67755    90.67972     2.95681     4.67755
    10.20000    89.32038   357.04359     4.67752    90.67962     2.95641     4.67752
    10.30000    89.32049   357.04399     4.67750    90.67951     2.95601     4.67750
    10.40000    89.32060   357.04439     4.67748    90.67940     2.95561     4.67748
    10.50000    89.32070   357.04479     4.67746    90.67930     2.95521     4.67746
    10.60000    89.32081   357.04519     4.67744    90.67919     2.95481     4.67744
    10.70000    89.32092   357.04559     4.67742    90.67908     2.95441     4.67742
    10.80000    89.32103   357.04599     4.67739    90.67897     2.95401     4.67739
    10.90000    89.32113   357.04639     4.67737    90.67887     2.95361     4.67737
    11.00000    89.32124   357.04679     4.67735    90.67876     2.95321     4.67735
    11.10000    89.32135   357.04719     4.67733    90.67865     2.95281     4.67733
    11.20000    89.32145   357.04759     4.67731    90.67855     2.95241     4.67731
    11.30000    89.32156   357.04799     4.67728    90.67844     2.95201     4.67728
    11.40000    89.32167   357.04838     4.67726    90.67833     2.95162     4.67726
    11.50000    89.32177   357.04878     4.67724    90.67823     2.95122     4.67724
    11.60000    89.32188   357.04918     4.67722    90.67812     2.95082     4.67722
    11.70000    89.32199   357.04958     4.67720    90.67801     2.95042     4.67720
    11.80000    89.32209   357.04998     4.67717    90.67791     2.95002     4.67717
    11.90000    89.32220   357.05037     4.67715    90.67780     2.94963     4.67715
    12.00000    89.32231   357.05077     4.67713    90.67769     2.94923     4.67713
    12.10000    89.32241   357.05117     4.67711    90.67759     2.94883     4.67711
    12.20000    89.32252   357.05157     4.67709    90.67748     2.94843     4.67709
    12.30000    89.32263   357.05196     4.67706    90.67737     2.94804     4.67706
    12.40000    89.32273   357.05236     4.67704    90.67727     2.94764     4.67704
    12.50000    89.32284   357.05276     4.67702    90.67716     2.94724     4.67702
    12.60000    89.32295   357.05316     4.67700    90.67705     2.94684     4.67700
    12.70000    89.32305   357.05355     4.67698    90.67695     2.94645     4.67698
    12.80000    89.32316   357.05395     4.67695    90.67684     2.94605     4.67695
    12.90000    89.32326   357.05434     4.67693    90.67674     2.94566     4.67693
    13.00000    89.32337   357.05474     4.67691    90.67663     2.94526     4.67691
    13.10000    89.32348   357.05514     4.67689    90.67652     2.94486     4.67689
    13.20000    89.32358   357.05553     4.67687    90.67642     2.94447     4.67687
    13.30000    89.32369   357.05593     4.67684    90.67631     2.94407     4.67684
    13.40000    89.32379   357.05632     4.67682    90.67621     2.94368     4.67682
    13.50000    89.32390   357.05672     4.67680    90.67610     2.94328     4.67680
    13.60000    89.32401   357.05712     4.67678    90.67599     2.94288     4.67678
    13.70000    89.32411   357.05751     4.67676    90.67589     2.94249     4.67676
    13.80000    89.32422   357.05791     4.67673    90.67578     2.94209     4.67673
    13.90000    89.32432   357.05830     4.67671    90.67568     2.94170     4.67671
    14.00000    89.32443   357.05870     4.67669    90.67557     2.94130     4.67669
    14.10000    89.32454   357.05909     4.67667    90.67546     2.94091     4.67667
    14.20000    89.32464   357.05949     4.67665    90.67536     2.94051     4.67665
    14.30000    89.32475   357.05988     4.67662    90.67525     2.94012     4.67662
    14.40000    89.32485   357.06027     4.67660    90.67515     2.93973     4.67660
    14.50000    89.32496   357.06067     4.67658    90.67504     2.93933     4.67658
    14.60000    89.32506   357.06106     4.67656    90.67494     2.93894     4.67656
    14.70000    89.32517   357.06146     4.67654    90.67483     2.93854     4.67654
    14.80000    89.32528   357.06185     4.67651    90.67472     2.93815     4.67651
    14.90000    89.32538   357.06224     4.67649    90.67462     2.93776     4.67649
    15.00000    89.32549   357.06264     4.67647    90.67451     2.93736     4.67647
    15.10000    89.32559   357.06303     4.67645    90.67441     2.93697     4.67645
    15.20000    89.32570   357.06342     4.67643    90.67430     2.93658     4.67643
    15.30000    89.32580   357.06382     4.67640    90.67420     2.93618     4.67640
    15.40000    89.32591   357.06421     4.67638    90.67409     2.93579     4.67638
    15.50000    89.32601   357.06460     4.67636    90.67399     2.93540     4.67636
    15.60000    89.32612   357.06500     4.67634    90.67388     2.93500     4.67634
    15.70000    89.32622   357.06539     4.67632    90.67378     2.93461     4.67632
    15.80000    89.32633   357.06578     4.67629    90.67367     2.93422     4.67629
    15.90000    89.32643   357.06617     4.67627    90.67357     2.93383     4.67627
    16.00000    89.32654   357.06657     4.67625    90.67346     2.93343     4.67625
    16.10000    89.32664   357.06696     4.67623    90.67336     2.93304     4.67623
    16.20000    89.32675   357.06735     4.67621    90.67325     2.93265     4.67621
    16.30000    89.32685   357.06774     4.67618    90.67315     2.93226     4.67618
    16.40000    89.32696   357.06813     4.67616    90.67304     2.93187     4.67616
    16.50000    89.32706   357.06852     4.67614    90.67294     2.93148     4.67614
    16.60000    89.32717   357.06892     4.67612    90.67283     2.93108     4.67612
    16.70000    89.32727   357.06931     4.67609    90.67273     2.93069     4.67609
    16.80000    89.32738   357.06970     4.67607    90.67262     2.93030     4.67607
    16.90000    89.32748   357.07009     4.67605    90.67252     2.92991     4.67605
    17.00000    89.32759   357.07048     4.67603    90.67241     2.92952     4.67603
    17.10000    89.32769   357.07087     4.67601    90.67231     2.92913     4.67601
    17.20000    89.32780   357.07126     4.67598    90.67220     2.92874     4.67598
    17.30000    89.32790   357.07165     4.67596    90.67210     2.92835     4.67596
    17.40000    89.32801   357.07204     4.67594    90.67199     2.92796     4.67594
    17.50000    89.32811   357.07243     4.67592    90.67189     2.92757     4.67592
    17.60000    89.32821   357.07282     4.67590    90.67179     2.92718     4.67590
    17.70000    89.32832   357.07321     4.67587    90.67168     2.92679     4.67587
    17.80000    89.32842   357.07360     4.67585    90.67158     2.92640     4.67585
    17.90000    89.32853   357.07399     4.67583    90.67147     2.92601     4.67583
    18.00000    89.32863   357.07438     4.67581    90.67137     2.92562     4.67581
    18.10000    89.32874   357.07477     4.67579    90.67126     2.92523     4.67579
    18.20000    89.32884   357.07516     4.67576    90.67116     2.92484     4.67576
    18.30000    89.32894   357.07555     4.67574    90.67106     2.92445     4.67574
    18.40000    89.32905   357.07594     4.67572    90.67095     2.92406     4.67572
    18.50000    89.32915   357.07633     4.67570    90.67085     2.92367     4.67570
    18.60000    89.32926   357.07671     4.67567    90.67074     2.92329     4.67567
    18.70000    89.32936   357.07710     4.67565    90.67064     2.92290     4.67565
    18.80000    89.32947   357.07749     4.67563    90.67053     2.92251     4.67563
    18.90000    89.32957   357.07788     4.67561    90.67043     2.92212     4.67561
    19.00000    89.32967   357.07827     4.67559    90.67033     2.92173     4.67559
    19.10000    89.32978   357.07866     4.67556    90.67022     2.92134     4.67556
    19.20000    89.32988   357.07904     4.67554    90.67012     2.92096     4.67554
    19.30000    89.32999   357.07943     4.67552    90.67001     2.92057     4.67552
    19.40000    89.33009   357.07982     4.67550    90.66991     2.92018     4.67550
    19.50000    89.33019   357.08021     4.67548    90.66981     2.91979     4.67548
    19.60000    89.33030   357.08059     4.67545    90.66970     2.91941     4.67545
    19.70000    89.33040   357.08098     4.67543    90.66960     2.91902     4.67543
    19.80000    89.33050   357.08137     4.67541    90.66950     2.91863     4.67541
    19.90000    89.33061   357.08175     4.67539    90.66939     2.91825     4.67539
    20.00000    89.33071   357.08214     4.67536    90.66929     2.91786     4.67536
    20.10000    89.33081   357.08253     4.67534    90.66919     2.91747     4.67534
    20.20000    89.33092   357.08291     4.67532    90.66908     2.91709     4.67532
    20.30000    89.33102   357.08330     4.67530    90.66898     2.91670     4.67530
    20.40000    89.33113   357.08369     4.67528    90.66887     2.91631     4.67528
    20.50000    89.33123   357.08407     4.67525    90.66877     2.91593     4.67525
    20.60000    89.33133   357.08446     4.67523    90.66867     2.91554     4.67523
    20.70000    89.33144   357.08485     4.67521    90.66856     2.91515     4.67521
    20.80000    89.33154   357.08523     4.67519    90.66846     2.91477     4.67519
    20.90000    89.33164   357.08562     4.67516    90.66836     2.91438     4.67516
    21.00000    89.33175   357.08600     4.67514    90.66825     2.91400     4.67514
    21.10000    89.33185   357.08639     4.67512    90.66815     2.91361     4.67512
    21.20000    89.33195   357.08677     4.67510    90.66805     2.91323     4.67510
    21.30000    89.33205   357.08716     4.67508    90.66795     2.91284     4.67508
    21.40000    89.33216   357.08754     4.67505    90.66784     2.91246     4.67505
    21.50000    89.33226   357.08793     4.67503    90.66774     2.91207     4.67503
    21.60000    89.33236   357.08831     4.67501    90.66764     2.91169     4.67501
    21.70000    89.33247   357.08870     4.67499    90.66753     2.91130     4.67499
    21.80000    89.33257   357.08908     4.67496    90.66743     2.91092     4.67496
    21.90000    89.33267   357.08946     4.67494    90.66733     2.91054     4.67494
    22.00000    89.33278   357.08985     4.67492    90.66722     2.91015     4.67492
    22.10000    89.33288   357.09023     4.67490    90.66712     2.90977     4.67490
    22.20000    89.33298   357.09062     4.67488    90.66702     2.90938     4.67488
    22.30000    89.33308   357.09100     4.67485    90.66692     2.90900     4.67485
    22.40000    89.33319   357.09138     4.67483    90.66681     2.90862     4.67483
    22.50000    89.33329   357.09177     4.67481    90.66671     2.90823     4.67481
    22.60000    89.33339   357.09215     4.67479    90.66661     2.90785     4.67479
    22.70000    89.33350   357.09253     4.67476    90.66650     2.90747     4.67476
    22.80000    89.33360   357.09292     4.67474    90.66640     2.90708     4.67474
    22.90000    89.33370   357.09330     4.67472    90.66630     2.90670     4.67472
    23.00000    89.33380   357.09368     4.67470    90.66620     2.90632     4.67470
    23.10000    89.33391   357.09407     4.67468    90.66609     2.90593     4.67468
    23.20000    89.33401   357.09445     4.67465    90.66599     2.90555     4.67465
    23.30000    89.33411   357.09483     4.67463    90.66589     2.90517     4.67463
    23.40000    89.33421   357.09521     4.67461    90.66579     2.90479     4.67461
    23.50000    89.33432   357.09560     4.67459    90.66568     2.90440     4.67459
    23.60000    89.33442   357.09598     4.67456    90.66558     2.90402     4.67456
    23.70000    89.33452   357.09636     4.67454    90.66548     2.90364     4.67454
    23.80000    89.33462   357.09674     4.67452    90.66538     2.90326     4.67452
    23.90000    89.33472   357.09712     4.67450    90.66528     2.90288     4.67450
    24.00000    89.33483   357.09750     4.67447    90.66517     2.90250     4.67447
    24.10000    89.33493   357.09789     4.67445    90.66507     2.90211     4.67445
    24.20000    89.33503   357.09827     4.67443    90.66497     2.90173     4.67443
    24.30000    89.33513   357.09865     4.67441    90.66487     2.90135     4.67441
    24.40000    89.33523   357.09903     4.67439    90.66477     2.90097     4.67439
    24.50000    89.33534   357.09941     4.67436    90.66466     2.90059     4.67436
    24.60000    89.33544   357.09979     4.67434    90.66456     2.90021     4.67434
    24.70000    89.33554   357.10017     4.67432    90.66446     2.89983     4.67432
    24.80000    89.33564   357.10055     4.67430    90.66436     2.89945     4.67430
    24.90000    89.33574   357.10093     4.67427    90.66426     2.89907     4.67427
    25.00000    89.33585   357.10131     4.67425    90.66415     2.89869     4.67425
    25.10000    89.33595   357.10169     4.67423    90.66405     2.89831     4.67423
    25.20000    89.33605   357.10207     4.67421    90.66395     2.89793     4.67421
    25.30000    89.33615   357.10245     4.67418    90.66385     2.89755     4.67418
    25.40000    89.33625   357.10283     4.67416    90.66375     2.89717     4.67416
    25.50000    89.33635   357.10321     4.67414    90.66365     2.89679     4.67414
    25.60000    89.33646   357.10359     4.67412    90.66354     2.89641     4.67412
    25.70000    89.33656   357.10397     4.67410    90.66344     2.89603     4.67410
    25.80000    89.33666   357.10435     4.67407    90.66334     2.89565     4.67407
    25.90000    89.33676   357.10473     4.67405    90.66324     2.89527     4.67405
    26.00000    89.33686   357.10511     4.67403    90.66314     2.89489     4.67403
    26.10000    89.33696   357.10548     4.67401    90.66304     2.89452     4.67401
    26.20000    89.33707   357.10586     4.67398    90.66293     2.89414     4.67398
    26.30000    89.33717   357.10624     4.67396    90.66283     2.89376     4.67396
    26.40000    89.33727   357.10662     4.67394    90.66273     2.89338     4.67394
    26.50000    89.33737   357.10700     4.67392    90.66263     2.89300     4.67392
    26.60000    89.33747   357.10738     4.67389    90.66253     2.89262     4.67389
    26.70000    89.33757   357.10775     4.67387    90.66243     2.89225     4.67387
    26.80000    89.33767   357.10813     4.67385    90.66233     2.89187     4.67385
    26.90000    89.33777   357.10851     4.67383    90.66223     2.89149     4.67383
    27.00000    89.33788   357.10889     4.67380    90.66212     2.89111     4.67380
    27.10000    89.33798   357.10927     4.67378    90.66202     2.89073     4.67378
    27.20000    89.33808   357.10964     4.67376    90.66192     2.89036     4.67376
    27.30000    89.33818   357.11002     4.67374    90.66182     2.88998     4.67374
    27.40000    89.33828   357.11040     4.67372    90.66172     2.88960     4.67372
    27.50000    89.33838   357.11077     4.67369    90.66162     2.88923     4.67369
    27.60000    89.33848   357.11115     4.67367    90.66152     2.88885     4.67367
    27.70000    89.33858   357.11153     4.67365    90.66142     2.88847     4.67365
    27.80000    89.33868   357.11190     4.67363    90.66132     2.88810     4.67363
    27.90000    89.33878   357.11228     4.67360    90.66122     2.88772     4.67360
    28.00000    89.33888   357.11266     4.67358    90.66112     2.88734     4.67358
    28.10000    89.33899   357.11303     4.67356    90.66101     2.88697     4.67356
    28.20000    89.33909   357.11341     4.67354    90.66091     2.88659     4.67354
    28.30000    89.33919   357.11378     4.67351    90.66081     2.88622     4.67351
    28.40000    89.33929   357.11416     4.67349    90.66071     2.88584     4.67349
    28.50000    89.33939   357.11454     4.67347    90.66061     2.88546     4.67347
    28.60000    89.33949   357.11491     4.67345    90.66051     2.88509     4.67345
    28.70000    89.33959   357.11529     4.67342    90.66041     2.88471     4.67342
    28.80000    89.33969   357.11566     4.67340    90.66031     2.88434     4.67340
    28.90000    89.33979   357.11604     4.67338    90.66021     2.88396     4.67338
    29.00000    89.33989   357.11641     4.67336    90.66011     2.88359     4.67336
    29.10000    89.33999   357.11679     4.67333    90.66001     2.88321     4.67333
    29.20000    89.34009   357.11716     4.67331    90.65991     2.88284     4.67331
    29.30000    89.34019   357.11754     4.67329    90.65981     2.88246     4.67329
    29.40000    89.34029   357.11791     4.67327    90.65971     2.88209     4.67327
    29.50000    89.34039   357.11829     4.67324    90.65961     2.88171     4.67324
    29.60000    89.34049   357.11866     4.67322    90.65951     2.88134     4.67322
    29.70000    89.34059   357.11903     4.67320    90.65941     2.88097     4.67320
    29.80000    89.34069   357.11941     4.67318    90.65931     2.88059     4.67318
    29.90000    89.34079   357.11978     4.67315    90.65921     2.88022     4.67315
    30.00000    89.34089   357.12016     4.67313    90.65911     2.87984     4.67313
    30.10000    89.34099   357.12053     4.67311    90.65901     2.87947     4.67311
    30.20000    89.34109   357.12090     4.67309    90.65891     2.87910     4.67309
    30.30000    89.34119   357.12128     4.67306    90.65881     2.87872     4.67306
    30.40000    89.34129   357.12165     4.67304    90.65871     2.87835     4.67304
    30.50000    89.34139   357.12202     4.67302    90.65861     2.87798     4.67302
    30.60000    89.34149   357.12240     4.67300    90.65851     2.87760     4.67300
    30.70000    89.34159   357.12277     4.67297    90.65841     2.87723     4.67297
    30.80000    89.34169   357.12314     4.67295    90.65831     2.87686     4.67295
    30.90000    89.34179   357.12351     4.67293    90.65821     2.87649     4.67293
    31.00000    89.34189   357.12389     4.67291    90.65811     2.87611     4.67291
    31.10000    89.34199   357.12426     4.67288    90.65801     2.87574     4.67288
    31.20000    89.34209   357.12463     4.67286    90.65791     2.87537     4.67286
    31.30000    89.34219   357.12500     4.67284    90.65781     2.87500     4.67284
    31.40000    89.34229   357.12537     4.67282    90.65771     2.87463     4.67282
    31.50000    89.34239   357.12575     4.67279    90.65761     2.87425     4.67279
    31.60000    89.34249   357.12612     4.67277    90.65751     2.87388     4.67277
    31.70000    89.34259   357.12649     4.67275    90.65741     2.87351     4.67275
    31.80000    89.34269   357.12686     4.67273    90.65731     2.87314     4.67273
    31.90000    89.34279   357.12723     4.67270    90.65721     2.87277     4.67270
    32.00000    89.34289   357.12760     4.67268    90.65711     2.87240     4.67268
    32.10000    89.34299   357.12797     4.67266    90.65701     2.87203     4.67266
    32.20000    89.34309   357.12835     4.67264    90.65691     2.87165     4.67264
    32.30000    89.34319   357.12872     4.67261    90.65681     2.87128     4.67261
    32.40000    89.34329   357.12909     4.67259    90.65671     2.87091     4.67259
    32.50000    89.34338   357.12946     4.67257    90.65662     2.87054     4.67257
    32.60000    89.34348   357.12983     4.67255    90.65652     2.87017     4.67255
    32.70000    89.34358   357.13020     4.67252    90.65642     2.86980     4.67252
    32.80000    89.34368   357.13057     4.67250    90.65632     2.86943     4.67250
    32.90000    89.34378   357.13094     4.67248    90.65622     2.86906     4.67248
    33.00000    89.34388   357.13131     4.67246    90.65612     2.86869     4.67246
    33.10000    89.34398   357.13168     4.67243    90.65602     2.86832     4.67243
    33.20000    89.34408   357.13205     4.67241    90.65592     2.86795     4.67241
    33.30000    89.34418   357.13242     4.67239    90.65582     2.86758     4.67239
    33.40000    89.34428   357.13279     4.67237    90.65572     2.86721     4.67237
    33.50000    89.34437   357.13316     4.67234    90.65563     2.86684     4.67234
    33.60000    89.34447   357.13352     4.67232    90.65553     2.86648     4.67232
    33.70000    89.34457   357.13389     4.67230    90.65543     2.86611     4.67230
    33.80000    89.34467   357.13426     4.67228    90.65533     2.86574     4.67228
    33.90000    89.34477   357.13463     4.67225    90.65523     2.86537     4.67225
    34.00000    89.34487   357.13500     4.67223    90.65513     2.86500     4.67223
    34.10000    89.34497   357.13537     4.67221    90.65503     2.86463     4.67221
    34.20000    89.34507   357.13574     4.67219    90.65493     2.86426     4.67219
    34.30000    89.34516   357.13611     4.67216    90.65484     2.86389     4.67216
    34.40000    89.34526   357.13647     4.67214    90.65474     2.86353     4.67214
    34.50000    89.34536   357.13684     4.67212    90.65464     2.86316     4.67212
    34.60000    89.34546   357.13721     4.67210    90.65454     2.86279     4.67210
    34.70000    89.34556   357.13758     4.67207    90.65444     2.86242     4.67207
    34.80000    89.34566   357.13795     4.67205    90.65434     2.86205     4.67205
    34.90000    89.34576   357.13831     4.67203    90.65424     2.86169     4.67203
    35.00000    89.34585   357.13868     4.67200    90.65415     2.86132     4.67200
    35.10000    89.34595   357.13905     4.67198    90.65405     2.86095     4.67198
    35.20000    89.34605   357.13941     4.67196    90.65395     2.86059     4.67196
    35.30000    89.34615   357.13978     4.67194    90.65385     2.86022     4.67194
    35.40000    89.34625   357.14015     4.67191    90.65375     2.85985     4.67191
    35.50000    89.34635   357.14052     4.67189    90.65365     2.85948     4.67189
    35.60000    89.34644   357.14088     4.67187    90.65356     2.85912     4.67187
    35.70000    89.34654   357.14125     4.67185    90.65346     2.85875     4.67185
    35.80000    89.34664   357.14162     4.67182    90.65336     2.85838     4.67182
    35.90000    89.34674   357.14198     4.67180    90.65326     2.85802     4.67180
    36.00000    89.34684   357.14235     4.67178    90.65316     2.85765     4.67178
    36.10000    89.34693   357.14271     4.67176    90.65307     2.85729     4.67176
    36.20000    89.34703   357.14308     4.67173    90.65297     2.85692     4.67173
    36.30000    89.34713   357.14345     4.67171    90.65287     2.85655     4.67171
    36.40000    89.34723   357.14381     4.67169    90.65277     2.85619     4.67169
    36.50000    89.34733   357.14418     4.67167    90.65267     2.85582     4.67167
    36.60000    89.34742   357.14454     4.67164    90.65258     2.85546     4.67164
    36.70000    89.34752   357.14491     4.67162    90.65248     2.85509     4.67162
    36.80000    89.34762   357.14527     4.67160    90.65238     2.85473     4.67160
    36.90000    89.34772   357.14564     4.67157    90.65228     2.85436     4.67157
    37.00000    89.34781   357.14600     4.67155    90.65219     2.85400     4.67155
    37.10000    89.34791   357.14637     4.67153    90.65209     2.85363     4.67153
    37.20000    89.34801   357.14673     4.67151    90.65199     2.85327     4.67151
    37.30000    89.34811   357.14710     4.67148    90.65189     2.85290     4.67148
    37.40000    89.34821   357.14746     4.67146    90.65179     2.85254     4.67146
    37.50000    89.34830   357.14783     4.67144    90.65170     2.85217     4.67144
    37.60000    89.34840   357.14819     4.67142    90.65160     2.85181     4.67142
    37.70000    89.34850   357.14855     4.67139    90.65150     2.85145     4.67139
    37.80000    89.34860   357.14892     4.67137    90.65140     2.85108     4.67137
    37.90000    89.34869   357.14928     4.67135    90.65131     2.85072     4.67135
    38.00000    89.34879   357.14964     4.67133    90.65121     2.85036     4.67133
    38.10000    89.34889   357.15001     4.67130    90.65111     2.84999     4.67130
    38.20000    89.34898   357.15037     4.67128    90.65102     2.84963     4.67128
    38.30000    89.34908   357.15074     4.67126    90.65092     2.84926     4.67126
    38.40000    89.34918   357.15110     4.67123    90.65082     2.84890     4.67123
    38.50000    89.34928   357.15146     4.67121    90.65072     2.84854     4.67121
    38.60000    89.34937   357.15182     4.67119    90.65063     2.84818     4.67119
    38.70000    89.34947   357.15219     4.67117    90.65053     2.84781     4.67117
    38.80000    89.34957   357.15255     4.67114    90.65043     2.84745     4.67114
    38.90000    89.34967   357.15291     4.67112    90.65033     2.84709     4.67112
    39.00000    89.34976   357.15327     4.67110    90.65024     2.84673     4.67110
    39.10000    89.34986   357.15364     4.67108    90.65014     2.84636     4.67108
    39.20000    89.34996   357.15400     4.67105    90.65004     2.84600     4.67105
    39.30000    89.35005   357.15436     4.67103    90.64995     2.84564     4.67103
    39.40000    89.35015   357.15472     4.67101    90.64985     2.84528     4.67101
    39.50000    89.35025   357.15509     4.67098    90.64975     2.84491     4.67098
    39.60000    89.35034   357.15545     4.67096    90.64966     2.84455     4.67096
    39.70000    89.35044   357.15581     4.67094    90.64956     2.84419     4.67094
    39.80000    89.35054   357.15617     4.67092    90.64946     2.84383     4.67092
    39.90000    89.35063   357.15653     4.67089    90.64937     2.84347     4.67089
    40.00000    89.35073   357.15689     4.67087    90.64927     2.84311     4.67087
