 # temperature (K), theta (degree), phi (degree), abs for magnetization
     0.00000     0.00000     0.00000     1.81890
     2.00000     0.00000     0.00000     1.81877
     4.00000     0.00000     0.00000     1.81853
     6.00000     0.00000     0.00000     1.81822
     8.00000     0.00000     0.00000     1.81786
    10.00000     0.00000     0.00000     1.81744
    12.00000     0.00000     0.00000     1.81698
    14.00000     0.00000     0.00000     1.81649
    16.00000     0.00000     0.00000     1.81595
    18.00000     0.00000     0.00000     1.81538
    20.00000     0.00000     0.00000     1.81478
    22.00000     0.00000     0.00000     1.81414
    24.00000     0.00000     0.00000     1.81348
    26.00000     0.00000     0.00000     1.81278
    28.00000     0.00000     0.00000     1.81206
    30.00000     0.00000     0.00000     1.81131
    32.00000     0.00000     0.00000     1.81054
    34.00000     0.00000     0.00000     1.80974
    36.00000     0.00000     0.00000     1.80892
    38.00000     0.00000     0.00000     1.80807
    40.00000     0.00000     0.00000     1.80719
    42.00000     0.00000     0.00000     1.80630
    44.00000     0.00000     0.00000     1.80538
    46.00000     0.00000     0.00000     1.80443
    48.00000     0.00000     0.00000     1.80347
    50.00000     0.00000     0.00000     1.80248
    52.00000     0.00000     0.00000     1.80147
    54.00000     0.00000     0.00000     1.80043
    56.00000     0.00000     0.00000     1.79937
